{
  "AcquisitionMatrixPE": 104,
  "AcquisitionNumber": 1,
  "AcquisitionTime": "19:26:34.382500",
  "BandwidthPerPixelPhaseEncode": 17.17,
  "BaseResolution": 104,
  "BodyPartExamined": "BRAIN",
  "CoilCombinationMethod": "Sum of Squares",
  "ConsistencyInfo": "N4_VE11C_LATEST_20160120",
  "ConversionSoftware": "dcm2niix",
  "ConversionSoftwareVersion": "v1.0.20230411",
  "DerivedVendorReportedEchoSpacing": 0.000560011,
  "DeviceSerialNumber": "167006",
  "DwellTime": 2.1e-06,
  "EchoTime": 0.037,
  "EchoTrainLength": 104,
  "EffectiveEchoSpacing": 0.000560011,
  "FlipAngle": 52,
  "HeudiconvVersion": "0.5.3.post861+ge7d3c7f",
  "ImageComments": "Unaliased MB4/PE3/LB",
  "ImageOrientationPatientDICOM": [0.999533, -0.026963, 0.0143754, 0.0303638, 0.929116, -0.368539],
  "ImageOrientationText": "Tra>Cor(-21.6)>Sag(0.2)",
  "ImageType": [
    "ORIGINAL",
    "PRIMARY",
    "M",
    "MB",
    "ND",
    "MOSAIC"
],
  "ImagingFrequency": 123.249316,
  "InPlanePhaseEncodingDirectionDICOM": "COL",
  "InstitutionAddress": "Chemin Queen-Mary 4565,Montreal,District,CA,H3W 1W5",
  "InstitutionName": "IUGM",
  "InstitutionalDepartmentName": "Department",
  "MRAcquisitionType": "2D",
  "MagneticFieldStrength": 3,
  "Manufacturer": "Siemens",
  "ManufacturersModelName": "Prisma_fit",
  "MatrixCoilMode": "SENSE",
  "Modality": "MR",
  "MultibandAccelerationFactor": 4,
  "NonlinearGradientCorrection": false,
  "PartialFourier": 1,
  "PatientPosition": "HFS",
  "PercentPhaseFOV": 100,
  "PercentSampling": 100,
  "PhaseEncodingDirection": "j",
  "PhaseEncodingSteps": 104,
  "PhaseResolution": 1,
  "PixelBandwidth": 2290,
  "ProcedureStepDescription": "localizers^retinotopy",
  "ProtocolName": "func_task-wedges",
  "PulseSequenceDetails": "%CustomerSeq%\\cmrr_mbep2d_bold",
  "ReceiveCoilActiveElements": "HC1-7;NC1,2",
  "ReceiveCoilName": "HeadNeck_64",
  "ReconMatrixPE": 104,
  "RepetitionTime": 1.49,
  "SAR": 0.0901524,
  "ScanOptions": "FS",
  "ScanningSequence": "EP",
  "SequenceName": "epfid2d1_104",
  "SequenceVariant": "SK\\SS",
  "SeriesDescription": "func_task-wedges",
  "SeriesNumber": 10,
  "ShimSetting": [585, -7273, -8825, 429, 27, -339, -43, 88],
  "SliceThickness": 2,
  "SliceTiming": [0, 0.7825, 0.0975, 0.88, 0.195, 0.98, 0.2925, 1.0775, 0.39, 1.175, 0.49, 1.2725, 0.5875, 1.37, 0.685, 0, 0.7825, 0.0975, 0.88, 0.195, 0.98, 0.2925, 1.0775, 0.39, 1.175, 0.49, 1.2725, 0.5875, 1.37, 0.685, 0, 0.7825, 0.0975, 0.88, 0.195, 0.98, 0.2925, 1.0775, 0.39, 1.175, 0.49, 1.2725, 0.5875, 1.37, 0.685, 0, 0.7825, 0.0975, 0.88, 0.195, 0.98, 0.2925, 1.0775, 0.39, 1.175, 0.49, 1.2725, 0.5875, 1.37, 0.685],
  "SoftwareVersions": "syngo MR E11",
  "SpacingBetweenSlices": 2,
  "StationName": "MRC35049",
  "TaskName": "wedges",
  "TotalReadoutTime": 0.0576811,
  "TxRefAmp": 323.066,
  "WipMemBlock": "4928a03b-d5f1-4390-bf19-1da0b4682d37||Sequence: R017 ve11c/master r/75a17815+; Jun 28 2022 16:32:11 by eja",
  "dcmmeta_affine": [
    [-1.9990661144256592, 0.060727693140506744, 0.006838989909738302, 101.79242706298828],
    [0.05392603203654289, 1.8582327365875244, -0.7376062273979187, -73.01464080810547],
    [0.02875078096985817, 0.7370774149894714, 1.8590025901794434, -63.92656326293945],
    [0.0, 0.0, 0.0, 1.0]
],
  "dcmmeta_reorient_transform": [
    [0.0, -1.0, 0.0, 103.0],
    [1.0, 0.0, 0.0, 0.0],
    [0.0, 0.0, 1.0, 0.0],
    [0.0, 0.0, 0.0, 1.0]
],
  "dcmmeta_shape": [104, 104, 60, 202],
  "dcmmeta_slice_dim": 2,
  "dcmmeta_version": 0.6,
  "global": {
    "const": {
      "AcquisitionMatrix": [104, 0, 0, 104],
      "AngioFlag": "N",
      "BitsAllocated": 16,
      "BitsStored": 16,
      "BodyPartExamined": "BRAIN",
      "Columns": 832,
      "EchoNumbers": 1,
      "EchoTime": 37.0,
      "EchoTrainLength": 104,
      "FlipAngle": 52.0,
      "HighBit": 15,
      "ImageOrientationPatient": [0.99953306292798, -0.0269630167781, 0.01437539008295, 0.0303638463965, 0.92911638367672, -0.3685387122346],
      "ImagePositionPatient": [-857.81233145895, -775.15098465195, 269.82330976562],
      "ImageType": [
        "ORIGINAL",
        "PRIMARY",
        "M",
        "MB",
        "ND",
        "MOSAIC"
],
      "ImagedNucleus": "1H",
      "ImagingFrequency": 123.249316,
      "InPlanePhaseEncodingDirection": "COL",
      "MRAcquisitionType": "2D",
      "MagneticFieldStrength": 3.0,
      "Manufacturer": "SIEMENS",
      "ManufacturerModelName": "Prisma_fit",
      "Modality": "MR",
      "NumberOfAverages": 1.0,
      "NumberOfPhaseEncodingSteps": 104,
      "PercentPhaseFieldOfView": 100.0,
      "PercentSampling": 100.0,
      "PerformedProcedureStepStartTime": "192217.452000",
      "PhotometricInterpretation": "MONOCHROME2",
      "PixelBandwidth": 2290.0,
      "PixelRepresentation": 0,
      "PixelSpacing": [2.0, 2.0],
      "ProtocolName": "func_task-wedges",
      "RepetitionTime": 1490.0,
      "Rows": 832,
      "SAR": 0.09015242184878,
      "SamplesPerPixel": 1,
      "ScanOptions": "FS",
      "ScanningSequence": "EP",
      "SequenceName": "epfid2d1_104",
      "SequenceVariant": [
        "SK",
        "SS"
],
      "SeriesDescription": "func_task-wedges",
      "SeriesNumber": 10,
      "SeriesTime": "192747.010000",
      "SliceLocation": -32.143714104423,
      "SliceThickness": 2.0,
      "SmallestImagePixelValue": 0,
      "SoftwareVersions": "syngo MR E11",
      "SpacingBetweenSlices": 2.0000000433727,
      "SpecificCharacterSet": "ISO_IR 100",
      "StudyID": "1",
      "StudyTime": "192217.371000",
      "TransmitCoilName": "Body",
      "VariableFlipAngleFlag": "N",
      "WindowCenterWidthExplanation": "Algo1",
      "dBdt": 0.0},
    "slices": {}
  },
  "time": {
    "samples": {
      "AcquisitionNumber": [1, 2, 3, 4, 5, 6, 7, 8, 9, 10, 11, 12, 13, 14, 15, 16, 17, 18, 19, 20, 21, 22, 23, 24, 25, 26, 27, 28, 29, 30, 31, 32, 33, 34, 35, 36, 37, 38, 39, 40, 41, 42, 43, 44, 45, 46, 47, 48, 49, 50, 51, 52, 53, 54, 55, 56, 57, 58, 59, 60, 61, 62, 63, 64, 65, 66, 67, 68, 69, 70, 71, 72, 73, 74, 75, 76, 77, 78, 79, 80, 81, 82, 83, 84, 85, 86, 87, 88, 89, 90, 91, 92, 93, 94, 95, 96, 97, 98, 99, 100, 101, 102, 103, 104, 105, 106, 107, 108, 109, 110, 111, 112, 113, 114, 115, 116, 117, 118, 119, 120, 121, 122, 123, 124, 125, 126, 127, 128, 129, 130, 131, 132, 133, 134, 135, 136, 137, 138, 139, 140, 141, 142, 143, 144, 145, 146, 147, 148, 149, 150, 151, 152, 153, 154, 155, 156, 157, 158, 159, 160, 161, 162, 163, 164, 165, 166, 167, 168, 169, 170, 171, 172, 173, 174, 175, 176, 177, 178, 179, 180, 181, 182, 183, 184, 185, 186, 187, 188, 189, 190, 191, 192, 193, 194, 195, 196, 197, 198, 199, 200, 201, 202],
      "AcquisitionTime": ["192634.382500", "192635.872500", "192637.362500", "192638.852500", "192640.342500", "192641.832500", "192643.322500", "192644.812500", "192646.302500", "192647.792500", "192649.282500", "192650.772500", "192652.262500", "192653.752500", "192655.242500", "192656.732500", "192658.222500", "192659.712500", "192701.202500", "192702.692500", "192704.182500", "192705.672500", "192707.162500", "192708.652500", "192710.142500", "192711.632500", "192713.122500", "192714.612500", "192716.102500", "192717.592500", "192719.082500", "192720.572500", "192722.062500", "192723.552500", "192725.042500", "192726.532500", "192728.022500", "192729.512500", "192731.002500", "192732.492500", "192733.982500", "192735.472500", "192736.962500", "192738.452500", "192739.942500", "192741.432500", "192742.922500", "192744.412500", "192745.902500", "192747.392500", "192748.882500", "192750.372500", "192751.862500", "192753.352500", "192754.842500", "192756.332500", "192757.822500", "192759.312500", "192800.802500", "192802.292500", "192803.782500", "192805.272500", "192806.762500", "192808.252500", "192809.742500", "192811.232500", "192812.722500", "192814.212500", "192815.702500", "192817.192500", "192818.682500", "192820.172500", "192821.662500", "192823.152500", "192824.642500", "192826.132500", "192827.622500", "192829.112500", "192830.602500", "192832.092500", "192833.582500", "192835.072500", "192836.562500", "192838.052500", "192839.542500", "192841.032500", "192842.522500", "192844.012500", "192845.502500", "192846.992500", "192848.482500", "192849.972500", "192851.462500", "192852.952500", "192854.442500", "192855.932500", "192857.422500", "192858.912500", "192900.402500", "192901.892500", "192903.382500", "192904.872500", "192906.362500", "192907.852500", "192909.342500", "192910.832500", "192912.322500", "192913.812500", "192915.302500", "192916.792500", "192918.282500", "192919.772500", "192921.262500", "192922.752500", "192924.242500", "192925.732500", "192927.222500", "192928.712500", "192930.202500", "192931.692500", "192933.182500", "192934.672500", "192936.162500", "192937.652500", "192939.142500", "192940.632500", "192942.122500", "192943.612500", "192945.102500", "192946.592500", "192948.082500", "192949.572500", "192951.062500", "192952.552500", "192954.042500", "192955.532500", "192957.022500", "192958.512500", "193000.002500", "193001.492500", "193002.982500", "193004.472500", "193005.962500", "193007.452500", "193008.942500", "193010.432500", "193011.922500", "193013.412500", "193014.902500", "193016.392500", "193017.882500", "193019.372500", "193020.862500", "193022.352500", "193023.842500", "193025.332500", "193026.822500", "193028.312500", "193029.802500", "193031.292500", "193032.782500", "193034.272500", "193035.762500", "193037.252500", "193038.742500", "193040.232500", "193041.722500", "193043.212500", "193044.702500", "193046.192500", "193047.682500", "193049.172500", "193050.662500", "193052.152500", "193053.642500", "193055.132500", "193056.622500", "193058.112500", "193059.602500", "193101.092500", "193102.582500", "193104.072500", "193105.562500", "193107.052500", "193108.542500", "193110.032500", "193111.522500", "193113.012500", "193114.502500", "193115.992500", "193117.482500", "193118.972500", "193120.462500", "193121.952500", "193123.442500", "193124.932500", "193126.422500", "193127.912500", "193129.402500", "193130.892500", "193132.382500", "193133.872500"],
      "ContentTime": ["192747.013000", "192747.017000", "192747.020000", "192747.024000", "192747.027000", "192747.031000", "192747.034000", "192747.037000", "192747.041000", "192747.044000", "192747.048000", "192747.051000", "192747.055000", "192747.058000", "192747.068000", "192747.072000", "192747.075000", "192747.078000", "192747.082000", "192747.085000", "192747.089000", "192747.106000", "192747.110000", "192747.113000", "192806.973000", "192806.977000", "192806.981000", "192806.984000", "192806.988000", "192806.991000", "192806.995000", "192806.998000", "192807.003000", "192807.006000", "192807.009000", "192807.013000", "192807.016000", "192807.019000", "192807.023000", "192807.026000", "192807.030000", "192807.033000", "192807.037000", "192807.040000", "192826.972000", "192826.976000", "192826.982000", "192826.985000", "192826.989000", "192826.992000", "192826.996000", "192827.000000", "192827.004000", "192827.007000", "192827.010000", "192827.014000", "192827.017000", "192827.021000", "192827.024000", "192827.028000", "192827.032000", "192827.035000", "192827.039000", "192827.043000", "192827.046000", "192846.972000", "192846.976000", "192846.979000", "192846.983000", "192846.987000", "192846.990000", "192846.993000", "192846.997000", "192847.001000", "192847.004000", "192847.008000", "192847.011000", "192847.015000", "192847.018000", "192847.022000", "192847.025000", "192847.028000", "192847.038000", "192847.041000", "192847.044000", "192926.972000", "192926.976000", "192926.979000", "192926.983000", "192926.986000", "192926.990000", "192926.993000", "192926.996000", "192927.001000", "192927.004000", "192927.007000", "192927.011000", "192927.014000", "192927.018000", "192927.026000", "192927.029000", "192927.033000", "192927.036000", "192927.040000", "192927.043000", "192927.047000", "192927.050000", "192927.054000", "192927.057000", "192927.061000", "192927.064000", "192927.067000", "192927.071000", "192927.088000", "192927.091000", "193006.972000", "193006.976000", "193006.979000", "193006.983000", "193006.986000", "193006.990000", "193006.993000", "193006.996000", "193007.001000", "193007.005000", "193007.008000", "193007.012000", "193007.015000", "193007.018000", "193007.022000", "193007.025000", "193007.029000", "193007.032000", "193007.037000", "193007.040000", "193007.044000", "193007.047000", "193007.051000", "193007.055000", "193007.058000", "193007.062000", "193007.065000", "193046.972000", "193046.976000", "193046.979000", "193046.983000", "193046.986000", "193046.990000", "193046.993000", "193046.997000", "193047.001000", "193047.005000", "193047.008000", "193047.011000", "193047.015000", "193047.018000", "193047.022000", "193047.025000", "193047.029000", "193047.032000", "193047.035000", "193047.039000", "193047.042000", "193047.046000", "193047.049000", "193047.053000", "193047.056000", "193047.059000", "193047.063000", "193126.972000", "193126.976000", "193126.979000", "193126.983000", "193126.986000", "193126.990000", "193126.993000", "193126.996000", "193127.001000", "193127.004000", "193127.008000", "193127.011000", "193127.014000", "193127.018000", "193127.021000", "193127.025000", "193127.028000", "193127.031000", "193127.035000", "193127.038000", "193127.042000", "193127.045000", "193127.048000", "193127.052000", "193127.055000", "193127.059000", "193127.062000", "193135.841000", "193135.845000", "193135.848000", "193135.852000", "193135.855000", "193135.859000"],
      "InstanceCreationTime": ["192747.013000", "192747.017000", "192747.020000", "192747.024000", "192747.027000", "192747.031000", "192747.034000", "192747.037000", "192747.041000", "192747.044000", "192747.048000", "192747.051000", "192747.055000", "192747.058000", "192747.068000", "192747.072000", "192747.075000", "192747.078000", "192747.082000", "192747.085000", "192747.089000", "192747.106000", "192747.110000", "192747.113000", "192806.973000", "192806.977000", "192806.981000", "192806.984000", "192806.988000", "192806.991000", "192806.995000", "192806.998000", "192807.003000", "192807.006000", "192807.009000", "192807.013000", "192807.016000", "192807.019000", "192807.023000", "192807.026000", "192807.030000", "192807.033000", "192807.037000", "192807.040000", "192826.972000", "192826.976000", "192826.982000", "192826.985000", "192826.989000", "192826.992000", "192826.996000", "192827.000000", "192827.004000", "192827.007000", "192827.010000", "192827.014000", "192827.017000", "192827.021000", "192827.024000", "192827.028000", "192827.032000", "192827.035000", "192827.039000", "192827.043000", "192827.046000", "192846.972000", "192846.976000", "192846.979000", "192846.983000", "192846.987000", "192846.990000", "192846.993000", "192846.997000", "192847.001000", "192847.004000", "192847.008000", "192847.011000", "192847.015000", "192847.018000", "192847.022000", "192847.025000", "192847.028000", "192847.038000", "192847.041000", "192847.044000", "192926.972000", "192926.976000", "192926.979000", "192926.983000", "192926.986000", "192926.990000", "192926.993000", "192926.996000", "192927.001000", "192927.004000", "192927.007000", "192927.011000", "192927.014000", "192927.018000", "192927.026000", "192927.029000", "192927.033000", "192927.036000", "192927.040000", "192927.043000", "192927.047000", "192927.050000", "192927.054000", "192927.057000", "192927.061000", "192927.064000", "192927.067000", "192927.071000", "192927.088000", "192927.091000", "193006.972000", "193006.976000", "193006.979000", "193006.983000", "193006.986000", "193006.990000", "193006.993000", "193006.996000", "193007.001000", "193007.005000", "193007.008000", "193007.012000", "193007.015000", "193007.018000", "193007.022000", "193007.025000", "193007.029000", "193007.032000", "193007.037000", "193007.040000", "193007.044000", "193007.047000", "193007.051000", "193007.055000", "193007.058000", "193007.062000", "193007.065000", "193046.972000", "193046.976000", "193046.979000", "193046.983000", "193046.986000", "193046.990000", "193046.993000", "193046.997000", "193047.001000", "193047.005000", "193047.008000", "193047.011000", "193047.015000", "193047.018000", "193047.022000", "193047.025000", "193047.029000", "193047.032000", "193047.035000", "193047.039000", "193047.042000", "193047.046000", "193047.049000", "193047.053000", "193047.056000", "193047.059000", "193047.063000", "193126.972000", "193126.976000", "193126.979000", "193126.983000", "193126.986000", "193126.990000", "193126.993000", "193126.996000", "193127.001000", "193127.004000", "193127.008000", "193127.011000", "193127.014000", "193127.018000", "193127.021000", "193127.025000", "193127.028000", "193127.031000", "193127.035000", "193127.038000", "193127.042000", "193127.045000", "193127.048000", "193127.052000", "193127.055000", "193127.059000", "193127.062000", "193135.841000", "193135.845000", "193135.848000", "193135.852000", "193135.855000", "193135.859000"],
      "InstanceNumber": [1, 2, 3, 4, 5, 6, 7, 8, 9, 10, 11, 12, 13, 14, 15, 16, 17, 18, 19, 20, 21, 22, 23, 24, 25, 26, 27, 28, 29, 30, 31, 32, 33, 34, 35, 36, 37, 38, 39, 40, 41, 42, 43, 44, 45, 46, 47, 48, 49, 50, 51, 52, 53, 54, 55, 56, 57, 58, 59, 60, 61, 62, 63, 64, 65, 66, 67, 68, 69, 70, 71, 72, 73, 74, 75, 76, 77, 78, 79, 80, 81, 82, 83, 84, 85, 86, 87, 88, 89, 90, 91, 92, 93, 94, 95, 96, 97, 98, 99, 100, 101, 102, 103, 104, 105, 106, 107, 108, 109, 110, 111, 112, 113, 114, 115, 116, 117, 118, 119, 120, 121, 122, 123, 124, 125, 126, 127, 128, 129, 130, 131, 132, 133, 134, 135, 136, 137, 138, 139, 140, 141, 142, 143, 144, 145, 146, 147, 148, 149, 150, 151, 152, 153, 154, 155, 156, 157, 158, 159, 160, 161, 162, 163, 164, 165, 166, 167, 168, 169, 170, 171, 172, 173, 174, 175, 176, 177, 178, 179, 180, 181, 182, 183, 184, 185, 186, 187, 188, 189, 190, 191, 192, 193, 194, 195, 196, 197, 198, 199, 200, 201, 202],
      "LargestImagePixelValue": [59123, 57178, 56700, 55716, 55732, 55066, 55097, 55109, 54992, 54784, 55009, 54811, 54913, 55331, 55447, 55695, 55885, 55701, 56213, 55678, 55759, 56110, 55721, 55699, 55754, 55591, 55899, 54592, 55263, 55591, 55270, 55252, 55522, 55120, 55120, 55736, 59583, 57028, 54679, 55297, 54545, 55746, 55970, 55687, 56954, 55175, 54889, 54777, 54856, 54851, 54344, 53981, 53974, 54619, 53761, 54622, 54420, 55374, 54609, 55241, 54911, 55085, 55618, 55052, 55961, 54660, 55415, 54906, 54528, 55104, 55486, 54377, 56780, 55267, 55419, 54160, 55063, 54525, 54820, 54764, 54468, 54106, 53982, 53904, 54690, 53249, 54984, 54040, 53530, 52934, 53226, 53313, 52601, 53469, 52865, 53059, 52779, 53484, 53525, 53385, 53717, 53790, 53428, 53715, 55369, 53586, 55158, 54486, 53858, 53966, 53398, 53704, 52872, 53325, 53468, 53531, 53453, 53228, 53468, 53450, 53257, 53442, 53117, 53276, 52534, 52943, 53082, 52741, 53329, 53115, 53744, 53825, 53884, 54095, 53178, 53225, 53286, 53030, 54045, 53854, 53866, 54901, 54154, 53992, 53875, 54102, 53649, 53610, 53286, 53286, 53574, 53455, 53258, 53043, 52782, 53160, 53502, 52517, 53162, 53311, 53832, 53059, 53984, 54167, 54501, 54180, 53645, 54671, 54501, 52822, 53066, 53155, 53863, 53780, 53858, 53595, 54599, 55177, 53805, 53610, 54954, 54662, 54768, 55054, 54020, 54965, 57091, 56779, 55696, 55192, 54127, 54005, 54111, 54840, 55133, 55719, 54266, 53991, 54219, 54804, 53839, 54199],
      "WindowCenter": [10550.0, 10488.0, 10453.0, 10430.0, 10408.0, 10393.0, 10403.0, 10420.0, 10432.0, 10434.0, 10432.0, 10411.0, 10414.0, 10408.0, 10457.0, 10469.0, 10465.0, 10464.0, 10461.0, 10465.0, 10454.0, 10461.0, 10454.0, 10441.0, 10457.0, 10451.0, 10427.0, 10425.0, 10424.0, 10453.0, 10441.0, 10419.0, 10406.0, 10397.0, 10405.0, 10459.0, 10472.0, 10326.0, 10401.0, 10394.0, 10398.0, 10437.0, 10441.0, 10404.0, 10409.0, 10429.0, 10457.0, 10465.0, 10452.0, 10420.0, 10401.0, 10399.0, 10425.0, 10462.0, 10461.0, 10451.0, 10434.0, 10436.0, 10442.0, 10459.0, 10466.0, 10463.0, 10458.0, 10445.0, 10439.0, 10436.0, 10448.0, 10460.0, 10437.0, 10433.0, 10412.0, 10380.0, 10413.0, 10409.0, 10405.0, 10393.0, 10389.0, 10398.0, 10412.0, 10415.0, 10407.0, 10400.0, 10406.0, 10416.0, 10423.0, 10442.0, 10430.0, 10402.0, 10385.0, 10388.0, 10388.0, 10395.0, 10383.0, 10396.0, 10397.0, 10405.0, 10405.0, 10414.0, 10418.0, 10426.0, 10438.0, 10441.0, 10434.0, 10434.0, 10412.0, 10440.0, 10445.0, 10420.0, 10400.0, 10411.0, 10425.0, 10413.0, 10384.0, 10370.0, 10353.0, 10352.0, 10373.0, 10394.0, 10418.0, 10428.0, 10423.0, 10424.0, 10421.0, 10428.0, 10424.0, 10415.0, 10426.0, 10429.0, 10437.0, 10433.0, 10421.0, 10419.0, 10410.0, 10408.0, 10405.0, 10425.0, 10436.0, 10423.0, 10419.0, 10408.0, 10426.0, 10423.0, 10412.0, 10417.0, 10433.0, 10437.0, 10415.0, 10397.0, 10388.0, 10395.0, 10413.0, 10429.0, 10432.0, 10425.0, 10420.0, 10429.0, 10437.0, 10439.0, 10448.0, 10444.0, 10429.0, 10414.0, 10407.0, 10407.0, 10410.0, 10406.0, 10401.0, 10404.0, 10400.0, 10391.0, 10415.0, 10422.0, 10421.0, 10411.0, 10413.0, 10421.0, 10458.0, 10439.0, 10390.0, 10378.0, 10407.0, 10444.0, 10447.0, 10425.0, 10399.0, 10397.0, 10423.0, 10433.0, 10414.0, 10401.0, 10383.0, 10375.0, 10365.0, 10356.0, 10357.0, 10365.0, 10368.0, 10388.0, 10390.0, 10405.0, 10405.0, 10406.0],
      "WindowWidth": [22953.0, 22765.0, 22654.0, 22590.0, 22530.0, 22493.0, 22512.0, 22550.0, 22579.0, 22585.0, 22580.0, 22532.0, 22538.0, 22516.0, 22635.0, 22661.0, 22654.0, 22648.0, 22639.0, 22653.0, 22625.0, 22638.0, 22624.0, 22596.0, 22638.0, 22620.0, 22564.0, 22579.0, 22551.0, 22617.0, 22593.0, 22544.0, 22513.0, 22495.0, 22510.0, 22640.0, 22671.0, 22309.0, 22497.0, 22476.0, 22490.0, 22580.0, 22589.0, 22501.0, 22507.0, 22559.0, 22624.0, 22643.0, 22616.0, 22544.0, 22503.0, 22497.0, 22559.0, 22640.0, 22646.0, 22620.0, 22580.0, 22582.0, 22596.0, 22634.0, 22648.0, 22644.0, 22627.0, 22599.0, 22584.0, 22580.0, 22606.0, 22640.0, 22586.0, 22580.0, 22523.0, 22450.0, 22522.0, 22511.0, 22501.0, 22476.0, 22468.0, 22489.0, 22521.0, 22531.0, 22513.0, 22499.0, 22511.0, 22539.0, 22547.0, 22602.0, 22563.0, 22504.0, 22466.0, 22473.0, 22474.0, 22492.0, 22468.0, 22493.0, 22500.0, 22517.0, 22516.0, 22537.0, 22545.0, 22561.0, 22584.0, 22595.0, 22578.0, 22578.0, 22546.0, 22585.0, 22597.0, 22545.0, 22499.0, 22520.0, 22551.0, 22526.0, 22463.0, 22429.0, 22395.0, 22392.0, 22437.0, 22489.0, 22543.0, 22568.0, 22559.0, 22560.0, 22551.0, 22566.0, 22560.0, 22539.0, 22560.0, 22571.0, 22589.0, 22582.0, 22553.0, 22546.0, 22525.0, 22520.0, 22516.0, 22557.0, 22583.0, 22556.0, 22544.0, 22521.0, 22566.0, 22548.0, 22527.0, 22538.0, 22573.0, 22584.0, 22536.0, 22494.0, 22473.0, 22492.0, 22534.0, 22572.0, 22580.0, 22565.0, 22554.0, 22570.0, 22589.0, 22594.0, 22615.0, 22601.0, 22567.0, 22534.0, 22517.0, 22516.0, 22517.0, 22510.0, 22499.0, 22504.0, 22501.0, 22483.0, 22532.0, 22549.0, 22547.0, 22523.0, 22529.0, 22552.0, 22632.0, 22584.0, 22476.0, 22445.0, 22508.0, 22593.0, 22605.0, 22555.0, 22496.0, 22488.0, 22542.0, 22564.0, 22526.0, 22496.0, 22459.0, 22437.0, 22414.0, 22391.0, 22392.0, 22418.0, 22418.0, 22469.0, 22474.0, 22509.0, 22508.0, 22508.0]
    },
    "slices": {}
  }
}