{
  "AcquisitionMatrixPE": 104,
  "AcquisitionNumber": 1,
  "AcquisitionTime": "18:17:26.100000",
  "BandwidthPerPixelPhaseEncode": 17.17,
  "BaseResolution": 104,
  "BodyPartExamined": "BRAIN",
  "CoilString": "HC1-7;NC1_2",
  "ConsistencyInfo": "N4_VE11C_LATEST_20160120",
  "ConversionSoftware": "dcm2niix",
  "ConversionSoftwareVersion": "v1.0.20190902",
  "DerivedVendorReportedEchoSpacing": 0.000560011,
  "DeviceSerialNumber": "167006",
  "DwellTime": 2.1e-06,
  "EchoTime": 0.037,
  "EchoTrainLength": 104,
  "EffectiveEchoSpacing": 0.000560011,
  "FlipAngle": 52,
  "ImageComments": "Unaliased_MB4_PE3_LB",
  "ImageOrientationPatientDICOM": [0.996128, 0.0779363, 0.0406714, -0.0563898, 0.921396, -0.384512],
  "ImageType": [
    "ORIGINAL",
    "PRIMARY",
    "M",
    "MB",
    "ND",
    "MOSAIC"
],
  "ImagingFrequency": 123.259,
  "InPlanePhaseEncodingDirectionDICOM": "COL",
  "InstitutionAddress": "Chemin_Queen-Mary_4565_Montreal_District_CA_H3W_1W5",
  "InstitutionName": "IUGM",
  "InstitutionalDepartmentName": "Department",
  "MRAcquisitionType": "2D",
  "MagneticFieldStrength": 3,
  "Manufacturer": "Siemens",
  "ManufacturersModelName": "Prisma_fit",
  "Modality": "MR",
  "MultibandAccelerationFactor": 4,
  "PartialFourier": 1,
  "PatientPosition": "HFS",
  "PercentPhaseFOV": 100,
  "PhaseEncodingDirection": "j",
  "PhaseEncodingSteps": 104,
  "PhaseResolution": 1,
  "PixelBandwidth": 2290,
  "ProcedureStepDescription": "localizers_retinotopy",
  "ProtocolName": "func_task-wedges",
  "PulseSequenceDetails": "%CustomerSeq%_cmrr_mbep2d_bold",
  "ReceiveCoilActiveElements": "HC1-7;NC1,2",
  "ReceiveCoilName": "HeadNeck_64",
  "ReconMatrixPE": 104,
  "RepetitionTime": 1.49,
  "SAR": 0.0371607,
  "ScanOptions": "FS",
  "ScanningSequence": "EP",
  "SequenceName": "epfid2d1_104",
  "SequenceVariant": "SK_SS",
  "SeriesDescription": "func_task-wedges",
  "SeriesNumber": 10,
  "ShimSetting": [639, -7193, -8831, 643, 109, -9, -65, -5],
  "SliceThickness": 2,
  "SliceTiming": [0, 0.785, 0.0975, 0.8825, 0.195, 0.98, 0.295, 1.0775, 0.3925, 1.175, 0.49, 1.275, 0.5875, 1.3725, 0.685, 0, 0.785, 0.0975, 0.8825, 0.195, 0.98, 0.295, 1.0775, 0.3925, 1.175, 0.49, 1.275, 0.5875, 1.3725, 0.685, 0, 0.785, 0.0975, 0.8825, 0.195, 0.98, 0.295, 1.0775, 0.3925, 1.175, 0.49, 1.275, 0.5875, 1.3725, 0.685, 0, 0.785, 0.0975, 0.8825, 0.195, 0.98, 0.295, 1.0775, 0.3925, 1.175, 0.49, 1.275, 0.5875, 1.3725, 0.685],
  "SoftwareVersions": "syngo_MR_E11",
  "SpacingBetweenSlices": 2,
  "StationName": "MRC35049",
  "TaskName": "wedges",
  "TotalReadoutTime": 0.0576811,
  "TxRefAmp": 246.543,
  "WipMemBlock": "52b63e6b-4b58-4a77-a44a-13b256f3f6b3||Sequence: R016 ve11c/master r/e634e98; Dec 19 2017 11:00:25 by eja",
  "dcmmeta_affine": [
    [-1.992256760597229, -0.11277969926595688, 0.13488371670246124, 108.9867172241211],
    [-0.15587250888347626, 1.8427921533584595, -0.7614597678184509, -49.66594696044922],
    [0.08134271949529648, 0.7690240144729614, 1.844447135925293, -64.34931182861328],
    [0.0, 0.0, 0.0, 1.0]
],
  "dcmmeta_reorient_transform": [
    [0.0, -1.0, 0.0, 103.0],
    [1.0, 0.0, 0.0, 0.0],
    [0.0, 0.0, 1.0, 0.0],
    [0.0, 0.0, 0.0, 1.0]
],
  "dcmmeta_shape": [104, 104, 60, 202],
  "dcmmeta_slice_dim": 2,
  "dcmmeta_version": 0.6,
  "global": {
    "const": {
      "AcquisitionMatrix": [104, 0, 0, 104],
      "AngioFlag": "N",
      "BitsAllocated": 16,
      "BitsStored": 16,
      "BodyPartExamined": "BRAIN",
      "Columns": 832,
      "EchoNumbers": 1,
      "EchoTime": 37.0,
      "EchoTrainLength": 104,
      "FlipAngle": 52.0,
      "HighBit": 15,
      "ImageOrientationPatient": [0.99612839598405, 0.0779362515744, 0.04067135853123, -0.0563898483056, 0.9213960589613, -0.3845120122164],
      "ImagePositionPatient": [-781.50007223938, -867.6555648242, 265.17615857671],
      "ImageType": [
        "ORIGINAL",
        "PRIMARY",
        "M",
        "MB",
        "ND",
        "MOSAIC"
],
      "ImagedNucleus": "1H",
      "ImagingFrequency": 123.25896,
      "InPlanePhaseEncodingDirection": "COL",
      "MRAcquisitionType": "2D",
      "MagneticFieldStrength": 3.0,
      "Manufacturer": "SIEMENS",
      "ManufacturerModelName": "Prisma_fit",
      "Modality": "MR",
      "NumberOfAverages": 1.0,
      "NumberOfPhaseEncodingSteps": 104,
      "PercentPhaseFieldOfView": 100.0,
      "PercentSampling": 100.0,
      "PerformedProcedureStepStartTime": "181434.717000",
      "PhotometricInterpretation": "MONOCHROME2",
      "PixelBandwidth": 2290.0,
      "PixelRepresentation": 0,
      "PixelSpacing": [2.0, 2.0],
      "ProtocolName": "func_task-wedges",
      "RepetitionTime": 1490.0,
      "Rows": 832,
      "SAR": 0.03716068497557,
      "SamplesPerPixel": 1,
      "ScanOptions": "FS",
      "ScanningSequence": "EP",
      "SequenceName": "epfid2d1_104",
      "SequenceVariant": [
        "SK",
        "SS"
],
      "SeriesDescription": "func_task-wedges",
      "SeriesNumber": 10,
      "SeriesTime": "181924.853000",
      "SliceLocation": -33.084877547924,
      "SliceThickness": 2.0,
      "SmallestImagePixelValue": 0,
      "SoftwareVersions": "syngo MR E11",
      "SpacingBetweenSlices": 2.0000000100765,
      "SpecificCharacterSet": "ISO_IR 100",
      "StudyID": "1",
      "StudyTime": "181434.629000",
      "TransmitCoilName": "Body",
      "VariableFlipAngleFlag": "N",
      "WindowCenterWidthExplanation": "Algo1",
      "dBdt": 0.0},
    "slices": {}
  },
  "time": {
    "samples": {
      "AcquisitionNumber": [1, 2, 3, 4, 5, 6, 7, 8, 9, 10, 11, 12, 13, 14, 15, 16, 17, 18, 19, 20, 21, 22, 23, 24, 25, 26, 27, 28, 29, 30, 31, 32, 33, 34, 35, 36, 37, 38, 39, 40, 41, 42, 43, 44, 45, 46, 47, 48, 49, 50, 51, 52, 53, 54, 55, 56, 57, 58, 59, 60, 61, 62, 63, 64, 65, 66, 67, 68, 69, 70, 71, 72, 73, 74, 75, 76, 77, 78, 79, 80, 81, 82, 83, 84, 85, 86, 87, 88, 89, 90, 91, 92, 93, 94, 95, 96, 97, 98, 99, 100, 101, 102, 103, 104, 105, 106, 107, 108, 109, 110, 111, 112, 113, 114, 115, 116, 117, 118, 119, 120, 121, 122, 123, 124, 125, 126, 127, 128, 129, 130, 131, 132, 133, 134, 135, 136, 137, 138, 139, 140, 141, 142, 143, 144, 145, 146, 147, 148, 149, 150, 151, 152, 153, 154, 155, 156, 157, 158, 159, 160, 161, 162, 163, 164, 165, 166, 167, 168, 169, 170, 171, 172, 173, 174, 175, 176, 177, 178, 179, 180, 181, 182, 183, 184, 185, 186, 187, 188, 189, 190, 191, 192, 193, 194, 195, 196, 197, 198, 199, 200, 201, 202],
      "AcquisitionTime": ["181726.100000", "181727.590000", "181729.080000", "181730.570000", "181732.060000", "181733.550000", "181735.040000", "181736.530000", "181738.020000", "181739.510000", "181741.000000", "181742.490000", "181743.980000", "181745.470000", "181746.960000", "181748.450000", "181749.940000", "181751.430000", "181752.920000", "181754.410000", "181755.900000", "181757.390000", "181758.880000", "181800.370000", "181801.860000", "181803.350000", "181804.840000", "181806.330000", "181807.820000", "181809.310000", "181810.800000", "181812.290000", "181813.780000", "181815.270000", "181816.760000", "181818.250000", "181819.740000", "181821.230000", "181822.720000", "181824.210000", "181825.700000", "181827.190000", "181828.680000", "181830.170000", "181831.660000", "181833.150000", "181834.640000", "181836.130000", "181837.620000", "181839.110000", "181840.600000", "181842.090000", "181843.580000", "181845.070000", "181846.560000", "181848.050000", "181849.540000", "181851.030000", "181852.520000", "181854.010000", "181855.500000", "181856.990000", "181858.480000", "181859.970000", "181901.460000", "181902.950000", "181904.440000", "181905.930000", "181907.420000", "181908.910000", "181910.400000", "181911.890000", "181913.380000", "181914.870000", "181916.360000", "181917.850000", "181919.340000", "181920.830000", "181922.320000", "181923.810000", "181925.300000", "181926.790000", "181928.280000", "181929.770000", "181931.260000", "181932.750000", "181934.240000", "181935.730000", "181937.220000", "181938.710000", "181940.200000", "181941.690000", "181943.180000", "181944.670000", "181946.160000", "181947.650000", "181949.140000", "181950.630000", "181952.120000", "181953.610000", "181955.100000", "181956.590000", "181958.080000", "181959.570000", "182001.060000", "182002.550000", "182004.040000", "182005.530000", "182007.020000", "182008.510000", "182010.000000", "182011.490000", "182012.980000", "182014.470000", "182015.960000", "182017.450000", "182018.940000", "182020.430000", "182021.920000", "182023.410000", "182024.900000", "182026.390000", "182027.880000", "182029.370000", "182030.860000", "182032.350000", "182033.840000", "182035.330000", "182036.820000", "182038.310000", "182039.800000", "182041.290000", "182042.780000", "182044.270000", "182045.760000", "182047.250000", "182048.740000", "182050.230000", "182051.720000", "182053.210000", "182054.700000", "182056.190000", "182057.680000", "182059.170000", "182100.660000", "182102.150000", "182103.640000", "182105.130000", "182106.620000", "182108.110000", "182109.600000", "182111.090000", "182112.580000", "182114.070000", "182115.560000", "182117.050000", "182118.540000", "182120.030000", "182121.520000", "182123.010000", "182124.500000", "182125.990000", "182127.480000", "182128.970000", "182130.460000", "182131.950000", "182133.440000", "182134.930000", "182136.420000", "182137.910000", "182139.400000", "182140.890000", "182142.380000", "182143.870000", "182145.360000", "182146.850000", "182148.340000", "182149.830000", "182151.320000", "182152.810000", "182154.300000", "182155.790000", "182157.280000", "182158.770000", "182200.260000", "182201.750000", "182203.240000", "182204.730000", "182206.220000", "182207.710000", "182209.200000", "182210.690000", "182212.180000", "182213.670000", "182215.160000", "182216.650000", "182218.140000", "182219.630000", "182221.120000", "182222.610000", "182224.100000", "182225.590000"],
      "ContentTime": ["181924.856000", "181924.860000", "181924.864000", "181924.867000", "181924.871000", "181924.874000", "181924.878000", "181924.881000", "181924.885000", "181924.888000", "181924.892000", "181924.895000", "181924.899000", "181924.902000", "181924.906000", "181924.909000", "181924.912000", "181924.916000", "181924.919000", "181924.923000", "181924.926000", "181924.934000", "181924.937000", "181924.941000", "181924.945000", "181924.950000", "181924.956000", "181924.960000", "181924.965000", "181924.970000", "181924.975000", "181924.979000", "181924.983000", "181924.986000", "181924.990000", "181944.814000", "181944.818000", "181944.821000", "181944.825000", "181944.828000", "181944.832000", "181944.835000", "181944.839000", "181944.842000", "181944.845000", "181944.849000", "181944.853000", "181944.856000", "181944.859000", "181944.863000", "181944.866000", "181944.870000", "181944.873000", "181944.876000", "181944.880000", "182004.814000", "182004.818000", "182004.830000", "182004.834000", "182004.837000", "182004.840000", "182004.844000", "182004.847000", "182004.851000", "182004.854000", "182004.858000", "182004.861000", "182004.864000", "182004.868000", "182004.871000", "182004.875000", "182004.878000", "182004.889000", "182004.892000", "182004.896000", "182024.814000", "182024.818000", "182024.821000", "182024.825000", "182024.829000", "182024.832000", "182024.836000", "182024.839000", "182024.843000", "182024.846000", "182024.850000", "182024.853000", "182024.857000", "182024.860000", "182024.864000", "182024.868000", "182024.872000", "182024.875000", "182024.879000", "182024.883000", "182044.813000", "182044.817000", "182044.821000", "182044.824000", "182044.827000", "182044.831000", "182044.834000", "182044.838000", "182044.841000", "182044.845000", "182044.848000", "182044.852000", "182044.855000", "182044.859000", "182044.862000", "182044.866000", "182044.869000", "182044.873000", "182044.877000", "182044.880000", "182044.883000", "182104.814000", "182104.818000", "182104.821000", "182104.825000", "182104.828000", "182104.832000", "182104.835000", "182104.839000", "182104.842000", "182104.846000", "182104.849000", "182104.853000", "182104.856000", "182104.859000", "182104.863000", "182104.866000", "182104.870000", "182104.873000", "182104.877000", "182104.880000", "182124.814000", "182124.818000", "182124.821000", "182124.825000", "182124.828000", "182124.832000", "182124.851000", "182124.855000", "182124.858000", "182124.862000", "182124.865000", "182124.868000", "182124.872000", "182124.875000", "182124.879000", "182124.882000", "182124.886000", "182124.889000", "182124.893000", "182124.896000", "182144.814000", "182144.818000", "182144.821000", "182144.831000", "182144.835000", "182144.838000", "182144.842000", "182144.845000", "182144.849000", "182144.852000", "182144.855000", "182144.859000", "182144.862000", "182144.873000", "182144.876000", "182144.880000", "182144.883000", "182224.814000", "182224.818000", "182224.822000", "182224.825000", "182224.828000", "182224.832000", "182224.835000", "182224.839000", "182224.842000", "182224.847000", "182224.851000", "182224.854000", "182224.858000", "182224.861000", "182224.865000", "182224.868000", "182224.871000", "182224.875000", "182224.878000", "182224.882000", "182224.885000", "182224.889000", "182224.892000", "182224.896000", "182224.899000", "182224.903000", "182228.030000", "182228.034000", "182228.038000"],
      "InstanceCreationTime": ["181924.856000", "181924.860000", "181924.864000", "181924.867000", "181924.871000", "181924.874000", "181924.878000", "181924.881000", "181924.885000", "181924.888000", "181924.892000", "181924.895000", "181924.899000", "181924.902000", "181924.906000", "181924.909000", "181924.912000", "181924.916000", "181924.919000", "181924.923000", "181924.926000", "181924.934000", "181924.937000", "181924.941000", "181924.945000", "181924.950000", "181924.956000", "181924.960000", "181924.965000", "181924.970000", "181924.975000", "181924.979000", "181924.983000", "181924.986000", "181924.990000", "181944.814000", "181944.818000", "181944.821000", "181944.825000", "181944.828000", "181944.832000", "181944.835000", "181944.839000", "181944.842000", "181944.845000", "181944.849000", "181944.853000", "181944.856000", "181944.859000", "181944.863000", "181944.866000", "181944.870000", "181944.873000", "181944.876000", "181944.880000", "182004.814000", "182004.818000", "182004.830000", "182004.834000", "182004.837000", "182004.840000", "182004.844000", "182004.847000", "182004.851000", "182004.854000", "182004.858000", "182004.861000", "182004.864000", "182004.868000", "182004.871000", "182004.875000", "182004.878000", "182004.889000", "182004.892000", "182004.896000", "182024.814000", "182024.818000", "182024.821000", "182024.825000", "182024.829000", "182024.832000", "182024.836000", "182024.839000", "182024.843000", "182024.846000", "182024.850000", "182024.853000", "182024.857000", "182024.860000", "182024.864000", "182024.868000", "182024.872000", "182024.875000", "182024.879000", "182024.883000", "182044.813000", "182044.817000", "182044.821000", "182044.824000", "182044.827000", "182044.831000", "182044.834000", "182044.838000", "182044.841000", "182044.845000", "182044.848000", "182044.852000", "182044.855000", "182044.859000", "182044.862000", "182044.866000", "182044.869000", "182044.873000", "182044.877000", "182044.880000", "182044.883000", "182104.814000", "182104.818000", "182104.821000", "182104.825000", "182104.828000", "182104.832000", "182104.835000", "182104.839000", "182104.842000", "182104.846000", "182104.849000", "182104.853000", "182104.856000", "182104.859000", "182104.863000", "182104.866000", "182104.870000", "182104.873000", "182104.877000", "182104.880000", "182124.814000", "182124.818000", "182124.821000", "182124.825000", "182124.828000", "182124.832000", "182124.851000", "182124.855000", "182124.858000", "182124.862000", "182124.865000", "182124.868000", "182124.872000", "182124.875000", "182124.879000", "182124.882000", "182124.886000", "182124.889000", "182124.893000", "182124.896000", "182144.814000", "182144.818000", "182144.821000", "182144.831000", "182144.835000", "182144.838000", "182144.842000", "182144.845000", "182144.849000", "182144.852000", "182144.855000", "182144.859000", "182144.862000", "182144.873000", "182144.876000", "182144.880000", "182144.883000", "182224.814000", "182224.818000", "182224.822000", "182224.825000", "182224.828000", "182224.832000", "182224.835000", "182224.839000", "182224.842000", "182224.847000", "182224.851000", "182224.854000", "182224.858000", "182224.861000", "182224.865000", "182224.868000", "182224.871000", "182224.875000", "182224.878000", "182224.882000", "182224.885000", "182224.889000", "182224.892000", "182224.896000", "182224.899000", "182224.903000", "182228.030000", "182228.034000", "182228.038000"],
      "InstanceNumber": [1, 2, 3, 4, 5, 6, 7, 8, 9, 10, 11, 12, 13, 14, 15, 16, 17, 18, 19, 20, 21, 22, 23, 24, 25, 26, 27, 28, 29, 30, 31, 32, 33, 34, 35, 36, 37, 38, 39, 40, 41, 42, 43, 44, 45, 46, 47, 48, 49, 50, 51, 52, 53, 54, 55, 56, 57, 58, 59, 60, 61, 62, 63, 64, 65, 66, 67, 68, 69, 70, 71, 72, 73, 74, 75, 76, 77, 78, 79, 80, 81, 82, 83, 84, 85, 86, 87, 88, 89, 90, 91, 92, 93, 94, 95, 96, 97, 98, 99, 100, 101, 102, 103, 104, 105, 106, 107, 108, 109, 110, 111, 112, 113, 114, 115, 116, 117, 118, 119, 120, 121, 122, 123, 124, 125, 126, 127, 128, 129, 130, 131, 132, 133, 134, 135, 136, 137, 138, 139, 140, 141, 142, 143, 144, 145, 146, 147, 148, 149, 150, 151, 152, 153, 154, 155, 156, 157, 158, 159, 160, 161, 162, 163, 164, 165, 166, 167, 168, 169, 170, 171, 172, 173, 174, 175, 176, 177, 178, 179, 180, 181, 182, 183, 184, 185, 186, 187, 188, 189, 190, 191, 192, 193, 194, 195, 196, 197, 198, 199, 200, 201, 202],
      "LargestImagePixelValue": [40740, 39653, 40063, 38810, 39048, 38840, 38613, 37987, 38428, 38559, 39592, 39083, 38704, 39039, 38258, 37629, 39178, 38715, 38527, 38827, 38306, 38707, 38821, 39178, 38817, 38646, 39103, 38290, 38662, 40094, 39820, 38869, 39063, 38624, 39113, 39363, 39083, 39198, 38872, 38933, 37663, 39370, 40483, 39781, 39216, 39035, 38836, 38064, 40438, 39944, 39959, 38950, 39067, 39309, 40340, 40659, 41646, 39521, 39579, 39248, 38703, 39963, 42330, 41656, 40581, 40397, 41598, 41522, 42566, 42547, 40387, 40753, 40704, 40861, 41143, 42460, 43214, 42003, 43132, 41887, 41073, 41184, 42054, 40784, 39754, 41209, 43035, 43157, 41440, 40796, 39985, 40743, 41195, 41772, 40815, 41007, 40381, 41284, 41600, 39170, 38838, 41373, 41002, 41061, 40299, 43336, 43967, 44152, 43056, 42438, 41405, 41524, 40878, 40888, 40654, 42187, 41884, 41613, 41039, 41067, 41964, 41880, 41995, 40749, 40157, 40103, 42853, 41149, 39946, 40941, 40984, 41410, 40692, 40865, 40465, 41474, 41130, 38541, 39650, 42838, 43104, 42389, 43109, 43597, 44159, 43266, 43982, 42087, 41491, 41465, 40935, 41009, 43695, 42906, 40441, 42454, 43272, 43431, 43791, 43701, 43835, 41905, 40621, 40822, 41323, 41459, 40319, 44885, 45587, 45380, 44868, 44273, 41668, 42300, 40617, 41804, 43897, 44088, 44589, 44617, 43807, 41948, 41881, 41454, 42132, 42596, 42772, 42717, 41570, 41702, 43111, 42820, 42742, 42716, 42234, 41381, 42185, 43530, 43989, 43650, 44067, 44598],
      "WindowCenter": [10355.0, 10328.0, 10313.0, 10275.0, 10273.0, 10290.0, 10302.0, 10300.0, 10301.0, 10308.0, 10317.0, 10284.0, 10258.0, 10263.0, 10286.0, 10303.0, 10339.0, 10333.0, 10291.0, 10270.0, 10263.0, 10283.0, 10293.0, 10291.0, 10265.0, 10246.0, 10251.0, 10256.0, 10274.0, 10299.0, 10284.0, 10255.0, 10259.0, 10272.0, 10305.0, 10306.0, 10269.0, 10260.0, 10268.0, 10289.0, 10292.0, 10309.0, 10307.0, 10265.0, 10255.0, 10248.0, 10261.0, 10277.0, 10323.0, 10320.0, 10283.0, 10251.0, 10249.0, 10251.0, 10297.0, 10321.0, 10306.0, 10257.0, 10251.0, 10254.0, 10262.0, 10300.0, 10332.0, 10300.0, 10258.0, 10247.0, 10264.0, 10293.0, 10334.0, 10318.0, 10268.0, 10273.0, 10261.0, 10257.0, 10253.0, 10272.0, 10285.0, 10274.0, 10275.0, 10264.0, 10269.0, 10286.0, 10303.0, 10288.0, 10275.0, 10302.0, 10336.0, 10319.0, 10272.0, 10257.0, 10273.0, 10317.0, 10333.0, 10294.0, 10243.0, 10236.0, 10239.0, 10260.0, 10273.0, 10267.0, 10272.0, 10290.0, 10265.0, 10243.0, 10222.0, 10250.0, 10283.0, 10311.0, 10293.0, 10290.0, 10292.0, 10301.0, 10275.0, 10257.0, 10259.0, 10286.0, 10308.0, 10312.0, 10278.0, 10257.0, 10268.0, 10281.0, 10280.0, 10276.0, 10264.0, 10267.0, 10301.0, 10270.0, 10251.0, 10264.0, 10284.0, 10305.0, 10311.0, 10296.0, 10255.0, 10262.0, 10284.0, 10281.0, 10315.0, 10326.0, 10307.0, 10273.0, 10267.0, 10282.0, 10288.0, 10281.0, 10302.0, 10291.0, 10275.0, 10266.0, 10261.0, 10283.0, 10305.0, 10306.0, 10291.0, 10280.0, 10264.0, 10270.0, 10292.0, 10310.0, 10317.0, 10310.0, 10299.0, 10293.0, 10271.0, 10258.0, 10236.0, 10264.0, 10271.0, 10295.0, 10298.0, 10311.0, 10291.0, 10280.0, 10245.0, 10263.0, 10284.0, 10290.0, 10291.0, 10293.0, 10290.0, 10270.0, 10260.0, 10263.0, 10284.0, 10301.0, 10301.0, 10288.0, 10281.0, 10275.0, 10296.0, 10298.0, 10307.0, 10312.0, 10329.0, 10317.0, 10306.0, 10299.0, 10302.0, 10308.0, 10322.0, 10330.0],
      "WindowWidth": [21984.0, 21910.0, 21867.0, 21777.0, 21771.0, 21810.0, 21836.0, 21837.0, 21834.0, 21846.0, 21864.0, 21791.0, 21732.0, 21745.0, 21799.0, 21843.0, 21921.0, 21906.0, 21805.0, 21756.0, 21742.0, 21784.0, 21811.0, 21805.0, 21746.0, 21699.0, 21711.0, 21728.0, 21770.0, 21822.0, 21786.0, 21722.0, 21728.0, 21764.0, 21836.0, 21840.0, 21753.0, 21733.0, 21755.0, 21807.0, 21817.0, 21850.0, 21839.0, 21743.0, 21718.0, 21707.0, 21741.0, 21780.0, 21877.0, 21881.0, 21781.0, 21711.0, 21706.0, 21710.0, 21810.0, 21870.0, 21830.0, 21723.0, 21705.0, 21719.0, 21743.0, 21821.0, 21884.0, 21813.0, 21717.0, 21694.0, 21728.0, 21792.0, 21897.0, 21854.0, 21745.0, 21752.0, 21727.0, 21716.0, 21703.0, 21739.0, 21771.0, 21757.0, 21747.0, 21729.0, 21744.0, 21782.0, 21822.0, 21795.0, 21762.0, 21815.0, 21894.0, 21853.0, 21748.0, 21719.0, 21761.0, 21857.0, 21892.0, 21797.0, 21683.0, 21665.0, 21676.0, 21722.0, 21748.0, 21748.0, 21762.0, 21791.0, 21737.0, 21690.0, 21641.0, 21693.0, 21767.0, 21827.0, 21783.0, 21775.0, 21794.0, 21814.0, 21758.0, 21718.0, 21730.0, 21780.0, 21830.0, 21841.0, 21761.0, 21713.0, 21732.0, 21775.0, 21767.0, 21759.0, 21734.0, 21743.0, 21810.0, 21743.0, 21706.0, 21735.0, 21781.0, 21826.0, 21844.0, 21804.0, 21713.0, 21724.0, 21789.0, 21784.0, 21853.0, 21867.0, 21821.0, 21745.0, 21729.0, 21760.0, 21767.0, 21753.0, 21800.0, 21784.0, 21751.0, 21732.0, 21728.0, 21774.0, 21813.0, 21817.0, 21793.0, 21758.0, 21715.0, 21730.0, 21779.0, 21820.0, 21836.0, 21829.0, 21811.0, 21797.0, 21749.0, 21713.0, 21667.0, 21712.0, 21725.0, 21776.0, 21788.0, 21821.0, 21791.0, 21759.0, 21695.0, 21733.0, 21762.0, 21774.0, 21773.0, 21776.0, 21777.0, 21736.0, 21718.0, 21733.0, 21773.0, 21815.0, 21810.0, 21779.0, 21765.0, 21754.0, 21793.0, 21800.0, 21823.0, 21836.0, 21887.0, 21857.0, 21820.0, 21798.0, 21802.0, 21826.0, 21852.0, 21866.0]
    },
    "slices": {}
  }
}