{
  "AcquisitionMatrixPE": 104,
  "AcquisitionNumber": 1,
  "AcquisitionTime": "18:22:49.515000",
  "BandwidthPerPixelPhaseEncode": 17.17,
  "BaseResolution": 104,
  "BodyPartExamined": "BRAIN",
  "CoilString": "HC1-7;NC1_2",
  "ConsistencyInfo": "N4_VE11C_LATEST_20160120",
  "ConversionSoftware": "dcm2niix",
  "ConversionSoftwareVersion": "v1.0.20190902",
  "DerivedVendorReportedEchoSpacing": 0.000560011,
  "DeviceSerialNumber": "167006",
  "DwellTime": 2.1e-06,
  "EchoTime": 0.037,
  "EchoTrainLength": 104,
  "EffectiveEchoSpacing": 0.000560011,
  "FlipAngle": 52,
  "ImageComments": "Unaliased_MB4_PE3_LB",
  "ImageOrientationPatientDICOM": [0.996128, 0.0779363, 0.0406714, -0.0563898, 0.921396, -0.384512],
  "ImageType": [
    "ORIGINAL",
    "PRIMARY",
    "P",
    "MB",
    "ND",
    "MOSAIC"
],
  "ImagingFrequency": 123.259,
  "InPlanePhaseEncodingDirectionDICOM": "COL",
  "InstitutionAddress": "Chemin_Queen-Mary_4565_Montreal_District_CA_H3W_1W5",
  "InstitutionName": "IUGM",
  "InstitutionalDepartmentName": "Department",
  "MRAcquisitionType": "2D",
  "MagneticFieldStrength": 3,
  "Manufacturer": "Siemens",
  "ManufacturersModelName": "Prisma_fit",
  "Modality": "MR",
  "MultibandAccelerationFactor": 4,
  "PartialFourier": 1,
  "PatientPosition": "HFS",
  "PercentPhaseFOV": 100,
  "PhaseEncodingDirection": "j",
  "PhaseEncodingSteps": 104,
  "PhaseResolution": 1,
  "PixelBandwidth": 2290,
  "ProcedureStepDescription": "localizers_retinotopy",
  "ProtocolName": "func_task-rings",
  "PulseSequenceDetails": "%CustomerSeq%_cmrr_mbep2d_bold",
  "ReceiveCoilActiveElements": "HC1-7;NC1,2",
  "ReceiveCoilName": "HeadNeck_64",
  "ReconMatrixPE": 104,
  "RepetitionTime": 1.49,
  "SAR": 0.0371607,
  "ScanOptions": "FS",
  "ScanningSequence": "EP",
  "SequenceName": "epfid2d1_104",
  "SequenceVariant": "SK_SS",
  "SeriesDescription": "func_task-rings",
  "SeriesNumber": 14,
  "ShimSetting": [639, -7193, -8831, 643, 109, -9, -65, -5],
  "SliceThickness": 2,
  "SliceTiming": [0, 0.7825, 0.0975, 0.88, 0.195, 0.98, 0.2925, 1.0775, 0.39, 1.175, 0.49, 1.2725, 0.5875, 1.37, 0.685, 0, 0.7825, 0.0975, 0.88, 0.195, 0.98, 0.2925, 1.0775, 0.39, 1.175, 0.49, 1.2725, 0.5875, 1.37, 0.685, 0, 0.7825, 0.0975, 0.88, 0.195, 0.98, 0.2925, 1.0775, 0.39, 1.175, 0.49, 1.2725, 0.5875, 1.37, 0.685, 0, 0.7825, 0.0975, 0.88, 0.195, 0.98, 0.2925, 1.0775, 0.39, 1.175, 0.49, 1.2725, 0.5875, 1.37, 0.685],
  "SoftwareVersions": "syngo_MR_E11",
  "SpacingBetweenSlices": 2,
  "StationName": "MRC35049",
  "TaskName": "rings",
  "TotalReadoutTime": 0.0576811,
  "TxRefAmp": 246.543,
  "WipMemBlock": "da2146ee-a008-4b1d-b540-600731a13bff||Sequence: R016 ve11c/master r/e634e98; Dec 19 2017 11:00:25 by eja",
  "dcmmeta_affine": [
    [-1.992256760597229, -0.11277969926595688, 0.13488371670246124, 108.9867172241211],
    [-0.15587250888347626, 1.8427921533584595, -0.7614597678184509, -49.66594696044922],
    [0.08134271949529648, 0.7690240144729614, 1.844447135925293, -64.34931182861328],
    [0.0, 0.0, 0.0, 1.0]
],
  "dcmmeta_reorient_transform": [
    [0.0, -1.0, 0.0, 103.0],
    [1.0, 0.0, 0.0, 0.0],
    [0.0, 0.0, 1.0, 0.0],
    [0.0, 0.0, 0.0, 1.0]
],
  "dcmmeta_shape": [104, 104, 60, 202],
  "dcmmeta_slice_dim": 2,
  "dcmmeta_version": 0.6,
  "global": {
    "const": {
      "AcquisitionMatrix": [104, 0, 0, 104],
      "AngioFlag": "N",
      "BitsAllocated": 16,
      "BitsStored": 16,
      "BodyPartExamined": "BRAIN",
      "Columns": 832,
      "EchoNumbers": 1,
      "EchoTime": 37.0,
      "EchoTrainLength": 104,
      "FlipAngle": 52.0,
      "HighBit": 15,
      "ImageOrientationPatient": [0.99612839598405, 0.0779362515744, 0.04067135853123, -0.0563898483056, 0.9213960589613, -0.3845120122164],
      "ImagePositionPatient": [-781.50007223938, -867.6555648242, 265.17615857671],
      "ImageType": [
        "ORIGINAL",
        "PRIMARY",
        "P",
        "MB",
        "ND",
        "MOSAIC"
],
      "ImagedNucleus": "1H",
      "ImagingFrequency": 123.258958,
      "InPlanePhaseEncodingDirection": "COL",
      "LargestImagePixelValue": 4095,
      "MRAcquisitionType": "2D",
      "MagneticFieldStrength": 3.0,
      "Manufacturer": "SIEMENS",
      "ManufacturerModelName": "Prisma_fit",
      "Modality": "MR",
      "NumberOfAverages": 1.0,
      "NumberOfPhaseEncodingSteps": 104,
      "PercentPhaseFieldOfView": 100.0,
      "PercentSampling": 100.0,
      "PerformedProcedureStepStartTime": "181434.717000",
      "PhotometricInterpretation": "MONOCHROME2",
      "PixelBandwidth": 2290.0,
      "PixelRepresentation": 0,
      "PixelSpacing": [2.0, 2.0],
      "ProtocolName": "func_task-rings",
      "RepetitionTime": 1490.0,
      "RescaleIntercept": -4096.0,
      "RescaleSlope": 2.0,
      "RescaleType": "US",
      "Rows": 832,
      "SAR": 0.03716068497557,
      "SamplesPerPixel": 1,
      "ScanOptions": "FS",
      "ScanningSequence": "EP",
      "SequenceName": "epfid2d1_104",
      "SequenceVariant": [
        "SK",
        "SS"
],
      "SeriesDescription": "func_task-rings",
      "SeriesNumber": 14,
      "SeriesTime": "182405.432000",
      "SliceLocation": -33.084877547924,
      "SliceThickness": 2.0,
      "SmallestImagePixelValue": 0,
      "SoftwareVersions": "syngo MR E11",
      "SpacingBetweenSlices": 2.0000000100765,
      "SpecificCharacterSet": "ISO_IR 100",
      "StudyID": "1",
      "StudyTime": "181434.629000",
      "TransmitCoilName": "Body",
      "VariableFlipAngleFlag": "N",
      "WindowCenterWidthExplanation": "Algo1",
      "dBdt": 0.0},
    "slices": {}
  },
  "time": {
    "samples": {
      "AcquisitionNumber": [1, 2, 3, 4, 5, 6, 7, 8, 9, 10, 11, 12, 13, 14, 15, 16, 17, 18, 19, 20, 21, 22, 23, 24, 25, 26, 27, 28, 29, 30, 31, 32, 33, 34, 35, 36, 37, 38, 39, 40, 41, 42, 43, 44, 45, 46, 47, 48, 49, 50, 51, 52, 53, 54, 55, 56, 57, 58, 59, 60, 61, 62, 63, 64, 65, 66, 67, 68, 69, 70, 71, 72, 73, 74, 75, 76, 77, 78, 79, 80, 81, 82, 83, 84, 85, 86, 87, 88, 89, 90, 91, 92, 93, 94, 95, 96, 97, 98, 99, 100, 101, 102, 103, 104, 105, 106, 107, 108, 109, 110, 111, 112, 113, 114, 115, 116, 117, 118, 119, 120, 121, 122, 123, 124, 125, 126, 127, 128, 129, 130, 131, 132, 133, 134, 135, 136, 137, 138, 139, 140, 141, 142, 143, 144, 145, 146, 147, 148, 149, 150, 151, 152, 153, 154, 155, 156, 157, 158, 159, 160, 161, 162, 163, 164, 165, 166, 167, 168, 169, 170, 171, 172, 173, 174, 175, 176, 177, 178, 179, 180, 181, 182, 183, 184, 185, 186, 187, 188, 189, 190, 191, 192, 193, 194, 195, 196, 197, 198, 199, 200, 201, 202],
      "AcquisitionTime": ["182249.515000", "182251.005000", "182252.495000", "182253.985000", "182255.475000", "182256.965000", "182258.455000", "182259.945000", "182301.435000", "182302.925000", "182304.415000", "182305.905000", "182307.395000", "182308.885000", "182310.375000", "182311.865000", "182313.355000", "182314.845000", "182316.335000", "182317.825000", "182319.315000", "182320.805000", "182322.295000", "182323.785000", "182325.275000", "182326.765000", "182328.255000", "182329.745000", "182331.235000", "182332.725000", "182334.215000", "182335.705000", "182337.195000", "182338.685000", "182340.175000", "182341.665000", "182343.155000", "182344.645000", "182346.135000", "182347.625000", "182349.115000", "182350.605000", "182352.095000", "182353.585000", "182355.075000", "182356.565000", "182358.055000", "182359.545000", "182401.035000", "182402.525000", "182404.015000", "182405.505000", "182406.995000", "182408.485000", "182409.975000", "182411.465000", "182412.955000", "182414.445000", "182415.935000", "182417.425000", "182418.915000", "182420.405000", "182421.895000", "182423.385000", "182424.875000", "182426.365000", "182427.855000", "182429.345000", "182430.835000", "182432.325000", "182433.815000", "182435.305000", "182436.795000", "182438.285000", "182439.775000", "182441.265000", "182442.755000", "182444.245000", "182445.735000", "182447.225000", "182448.715000", "182450.205000", "182451.695000", "182453.185000", "182454.675000", "182456.165000", "182457.655000", "182459.145000", "182500.635000", "182502.125000", "182503.615000", "182505.105000", "182506.595000", "182508.085000", "182509.575000", "182511.065000", "182512.555000", "182514.045000", "182515.535000", "182517.025000", "182518.515000", "182520.005000", "182521.495000", "182522.985000", "182524.475000", "182525.965000", "182527.455000", "182528.945000", "182530.435000", "182531.925000", "182533.415000", "182534.905000", "182536.395000", "182537.885000", "182539.375000", "182540.865000", "182542.355000", "182543.845000", "182545.335000", "182546.825000", "182548.315000", "182549.805000", "182551.295000", "182552.785000", "182554.275000", "182555.765000", "182557.255000", "182558.745000", "182600.235000", "182601.725000", "182603.215000", "182604.705000", "182606.195000", "182607.685000", "182609.175000", "182610.665000", "182612.155000", "182613.645000", "182615.135000", "182616.625000", "182618.115000", "182619.605000", "182621.095000", "182622.585000", "182624.075000", "182625.565000", "182627.055000", "182628.545000", "182630.035000", "182631.525000", "182633.015000", "182634.505000", "182635.995000", "182637.485000", "182638.975000", "182640.465000", "182641.955000", "182643.445000", "182644.935000", "182646.425000", "182647.915000", "182649.405000", "182650.895000", "182652.385000", "182653.875000", "182655.365000", "182656.855000", "182658.345000", "182659.835000", "182701.325000", "182702.815000", "182704.305000", "182705.795000", "182707.285000", "182708.775000", "182710.265000", "182711.755000", "182713.245000", "182714.735000", "182716.225000", "182717.715000", "182719.205000", "182720.695000", "182722.185000", "182723.675000", "182725.165000", "182726.655000", "182728.145000", "182729.635000", "182731.125000", "182732.615000", "182734.105000", "182735.595000", "182737.085000", "182738.575000", "182740.065000", "182741.555000", "182743.045000", "182744.535000", "182746.025000", "182747.515000", "182749.005000"],
      "ContentTime": ["182405.434000", "182405.437000", "182405.439000", "182405.442000", "182405.444000", "182405.447000", "182405.450000", "182405.452000", "182405.455000", "182405.457000", "182405.460000", "182405.462000", "182405.465000", "182405.468000", "182405.470000", "182405.473000", "182405.476000", "182405.479000", "182405.481000", "182405.484000", "182405.487000", "182405.490000", "182425.408000", "182425.411000", "182425.414000", "182425.416000", "182425.419000", "182425.426000", "182425.429000", "182425.431000", "182425.434000", "182425.437000", "182425.439000", "182425.442000", "182425.445000", "182425.447000", "182425.450000", "182425.452000", "182425.455000", "182425.457000", "182425.460000", "182425.463000", "182445.413000", "182445.416000", "182445.419000", "182445.421000", "182445.424000", "182445.426000", "182445.429000", "182445.432000", "182445.434000", "182445.437000", "182445.440000", "182445.442000", "182445.445000", "182445.447000", "182445.450000", "182445.453000", "182445.455000", "182445.458000", "182445.460000", "182445.463000", "182505.408000", "182505.410000", "182505.413000", "182505.416000", "182505.418000", "182505.421000", "182505.424000", "182505.426000", "182505.429000", "182505.431000", "182505.434000", "182505.437000", "182505.439000", "182505.442000", "182505.444000", "182505.447000", "182505.450000", "182505.452000", "182505.455000", "182505.457000", "182505.460000", "182525.401000", "182525.404000", "182525.407000", "182525.411000", "182525.413000", "182525.416000", "182525.419000", "182525.421000", "182525.424000", "182525.427000", "182525.429000", "182525.432000", "182525.435000", "182525.437000", "182525.440000", "182525.443000", "182525.445000", "182525.448000", "182525.450000", "182525.453000", "182605.443000", "182605.446000", "182605.449000", "182605.451000", "182605.454000", "182605.457000", "182605.459000", "182605.462000", "182605.464000", "182605.467000", "182605.470000", "182605.472000", "182605.475000", "182605.478000", "182605.480000", "182605.483000", "182605.485000", "182605.488000", "182605.491000", "182605.493000", "182605.496000", "182605.498000", "182605.501000", "182605.504000", "182605.506000", "182605.509000", "182605.511000", "182645.428000", "182645.432000", "182645.435000", "182645.437000", "182645.440000", "182645.443000", "182645.446000", "182645.448000", "182645.451000", "182645.453000", "182645.456000", "182645.459000", "182645.461000", "182645.464000", "182645.467000", "182645.469000", "182645.472000", "182645.474000", "182645.477000", "182645.480000", "182645.482000", "182645.485000", "182645.488000", "182645.490000", "182645.493000", "182645.495000", "182645.498000", "182725.442000", "182725.445000", "182725.448000", "182725.451000", "182725.453000", "182725.456000", "182725.459000", "182725.461000", "182725.464000", "182725.466000", "182725.469000", "182725.472000", "182725.481000", "182725.483000", "182725.486000", "182725.488000", "182725.492000", "182725.495000", "182725.498000", "182725.500000", "182725.503000", "182725.506000", "182725.509000", "182725.511000", "182725.514000", "182725.517000", "182725.519000", "182751.785000", "182751.788000", "182751.791000", "182751.794000", "182751.797000", "182751.800000", "182751.803000", "182751.811000", "182751.814000", "182751.817000", "182751.820000", "182751.823000", "182751.826000", "182751.829000", "182751.832000", "182751.835000", "182751.838000", "182751.841000"],
      "InstanceCreationTime": ["182405.434000", "182405.437000", "182405.439000", "182405.442000", "182405.444000", "182405.447000", "182405.450000", "182405.452000", "182405.455000", "182405.457000", "182405.460000", "182405.462000", "182405.465000", "182405.468000", "182405.470000", "182405.473000", "182405.476000", "182405.479000", "182405.481000", "182405.484000", "182405.487000", "182405.490000", "182425.408000", "182425.411000", "182425.414000", "182425.416000", "182425.419000", "182425.426000", "182425.429000", "182425.431000", "182425.434000", "182425.437000", "182425.439000", "182425.442000", "182425.445000", "182425.447000", "182425.450000", "182425.452000", "182425.455000", "182425.457000", "182425.460000", "182425.463000", "182445.413000", "182445.416000", "182445.419000", "182445.421000", "182445.424000", "182445.426000", "182445.429000", "182445.432000", "182445.434000", "182445.437000", "182445.440000", "182445.442000", "182445.445000", "182445.447000", "182445.450000", "182445.453000", "182445.455000", "182445.458000", "182445.460000", "182445.463000", "182505.408000", "182505.410000", "182505.413000", "182505.416000", "182505.418000", "182505.421000", "182505.424000", "182505.426000", "182505.429000", "182505.431000", "182505.434000", "182505.437000", "182505.439000", "182505.442000", "182505.444000", "182505.447000", "182505.450000", "182505.452000", "182505.455000", "182505.457000", "182505.460000", "182525.401000", "182525.404000", "182525.407000", "182525.411000", "182525.413000", "182525.416000", "182525.419000", "182525.421000", "182525.424000", "182525.427000", "182525.429000", "182525.432000", "182525.435000", "182525.437000", "182525.440000", "182525.443000", "182525.445000", "182525.448000", "182525.450000", "182525.453000", "182605.443000", "182605.446000", "182605.449000", "182605.451000", "182605.454000", "182605.457000", "182605.459000", "182605.462000", "182605.464000", "182605.467000", "182605.470000", "182605.472000", "182605.475000", "182605.478000", "182605.480000", "182605.483000", "182605.485000", "182605.488000", "182605.491000", "182605.493000", "182605.496000", "182605.498000", "182605.501000", "182605.504000", "182605.506000", "182605.509000", "182605.511000", "182645.428000", "182645.432000", "182645.435000", "182645.437000", "182645.440000", "182645.443000", "182645.446000", "182645.448000", "182645.451000", "182645.453000", "182645.456000", "182645.459000", "182645.461000", "182645.464000", "182645.467000", "182645.469000", "182645.472000", "182645.474000", "182645.477000", "182645.480000", "182645.482000", "182645.485000", "182645.488000", "182645.490000", "182645.493000", "182645.495000", "182645.498000", "182725.442000", "182725.445000", "182725.448000", "182725.451000", "182725.453000", "182725.456000", "182725.459000", "182725.461000", "182725.464000", "182725.466000", "182725.469000", "182725.472000", "182725.481000", "182725.483000", "182725.486000", "182725.488000", "182725.492000", "182725.495000", "182725.498000", "182725.500000", "182725.503000", "182725.506000", "182725.509000", "182725.511000", "182725.514000", "182725.517000", "182725.519000", "182751.785000", "182751.788000", "182751.791000", "182751.794000", "182751.797000", "182751.800000", "182751.803000", "182751.811000", "182751.814000", "182751.817000", "182751.820000", "182751.823000", "182751.826000", "182751.829000", "182751.832000", "182751.835000", "182751.838000", "182751.841000"],
      "InstanceNumber": [1, 2, 3, 4, 5, 6, 7, 8, 9, 10, 11, 12, 13, 14, 15, 16, 17, 18, 19, 20, 21, 22, 23, 24, 25, 26, 27, 28, 29, 30, 31, 32, 33, 34, 35, 36, 37, 38, 39, 40, 41, 42, 43, 44, 45, 46, 47, 48, 49, 50, 51, 52, 53, 54, 55, 56, 57, 58, 59, 60, 61, 62, 63, 64, 65, 66, 67, 68, 69, 70, 71, 72, 73, 74, 75, 76, 77, 78, 79, 80, 81, 82, 83, 84, 85, 86, 87, 88, 89, 90, 91, 92, 93, 94, 95, 96, 97, 98, 99, 100, 101, 102, 103, 104, 105, 106, 107, 108, 109, 110, 111, 112, 113, 114, 115, 116, 117, 118, 119, 120, 121, 122, 123, 124, 125, 126, 127, 128, 129, 130, 131, 132, 133, 134, 135, 136, 137, 138, 139, 140, 141, 142, 143, 144, 145, 146, 147, 148, 149, 150, 151, 152, 153, 154, 155, 156, 157, 158, 159, 160, 161, 162, 163, 164, 165, 166, 167, 168, 169, 170, 171, 172, 173, 174, 175, 176, 177, 178, 179, 180, 181, 182, 183, 184, 185, 186, 187, 188, 189, 190, 191, 192, 193, 194, 195, 196, 197, 198, 199, 200, 201, 202],
      "WindowCenter": [4908.0, 4896.0, 4898.0, 4910.0, 4890.0, 4892.0, 4908.0, 4900.0, 4864.0, 4894.0, 4912.0, 4910.0, 4886.0, 4910.0, 4904.0, 4900.0, 4910.0, 4912.0, 4910.0, 4910.0, 4900.0, 4890.0, 4904.0, 4908.0, 4908.0, 4896.0, 4898.0, 4904.0, 4888.0, 4868.0, 4862.0, 4868.0, 4910.0, 4892.0, 4826.0, 4822.0, 4890.0, 4910.0, 4890.0, 4888.0, 4906.0, 4898.0, 4894.0, 4902.0, 4890.0, 4862.0, 4838.0, 4892.0, 4914.0, 4864.0, 4822.0, 4852.0, 4930.0, 4908.0, 4892.0, 4890.0, 4908.0, 4900.0, 4902.0, 4910.0, 4912.0, 4908.0, 4906.0, 4900.0, 4864.0, 4904.0, 4908.0, 4912.0, 4914.0, 4906.0, 4892.0, 4860.0, 4892.0, 4910.0, 4890.0, 4888.0, 4890.0, 4880.0, 4862.0, 4822.0, 4866.0, 4902.0, 4862.0, 4864.0, 4862.0, 4880.0, 4900.0, 4902.0, 4906.0, 4914.0, 4912.0, 4902.0, 4866.0, 4862.0, 4896.0, 4910.0, 4888.0, 4864.0, 4890.0, 4900.0, 4892.0, 4894.0, 4906.0, 4912.0, 4912.0, 4914.0, 4912.0, 4912.0, 4898.0, 4898.0, 4904.0, 4912.0, 4906.0, 4898.0, 4868.0, 4870.0, 4898.0, 4884.0, 4836.0, 4832.0, 4864.0, 4910.0, 4888.0, 4824.0, 4822.0, 4856.0, 4910.0, 4892.0, 4866.0, 4864.0, 4886.0, 4904.0, 4906.0, 4932.0, 4914.0, 4932.0, 4906.0, 4902.0, 4896.0, 4900.0, 4906.0, 4890.0, 4888.0, 4890.0, 4914.0, 4906.0, 4890.0, 4866.0, 4902.0, 4912.0, 4910.0, 4906.0, 4904.0, 4908.0, 4914.0, 4912.0, 4910.0, 4908.0, 4906.0, 4900.0, 4894.0, 4898.0, 4908.0, 4912.0, 4910.0, 4906.0, 4898.0, 4900.0, 4908.0, 4908.0, 4908.0, 4908.0, 4898.0, 4864.0, 4898.0, 4914.0, 4892.0, 4890.0, 4910.0, 4904.0, 4860.0, 4830.0, 4896.0, 4908.0, 4890.0, 4888.0, 4906.0, 4894.0, 4896.0, 4904.0, 4908.0, 4910.0, 4890.0, 4912.0, 4904.0, 4860.0, 4824.0, 4862.0, 4908.0, 4888.0, 4862.0, 4838.0],
      "WindowWidth": [18698.0, 18712.0, 18710.0, 18694.0, 18642.0, 18650.0, 18690.0, 18712.0, 18688.0, 18714.0, 18706.0, 18684.0, 18652.0, 18684.0, 18700.0, 18714.0, 18710.0, 18696.0, 18700.0, 18700.0, 18708.0, 18718.0, 18720.0, 18692.0, 18696.0, 18714.0, 18716.0, 18702.0, 18648.0, 18606.0, 18598.0, 18608.0, 18696.0, 18712.0, 18650.0, 18648.0, 18718.0, 18702.0, 18648.0, 18654.0, 18698.0, 18716.0, 18718.0, 18704.0, 18650.0, 18600.0, 18570.0, 18644.0, 18704.0, 18688.0, 18650.0, 18680.0, 18746.0, 18682.0, 18646.0, 18646.0, 18684.0, 18708.0, 18710.0, 18698.0, 18698.0, 18690.0, 18698.0, 18710.0, 18684.0, 18712.0, 18698.0, 18692.0, 18690.0, 18698.0, 18710.0, 18684.0, 18720.0, 18698.0, 18646.0, 18642.0, 18648.0, 18664.0, 18690.0, 18644.0, 18688.0, 18706.0, 18614.0, 18608.0, 18608.0, 18656.0, 18718.0, 18714.0, 18692.0, 18686.0, 18702.0, 18708.0, 18686.0, 18694.0, 18720.0, 18696.0, 18640.0, 18606.0, 18650.0, 18698.0, 18724.0, 18720.0, 18706.0, 18698.0, 18688.0, 18692.0, 18692.0, 18700.0, 18718.0, 18724.0, 18708.0, 18692.0, 18694.0, 18716.0, 18688.0, 18694.0, 18708.0, 18648.0, 18568.0, 18564.0, 18610.0, 18692.0, 18720.0, 18650.0, 18650.0, 18684.0, 18706.0, 18650.0, 18614.0, 18608.0, 18656.0, 18702.0, 18714.0, 18738.0, 18696.0, 18742.0, 18708.0, 18716.0, 18722.0, 18724.0, 18706.0, 18656.0, 18646.0, 18652.0, 18690.0, 18708.0, 18718.0, 18688.0, 18714.0, 18704.0, 18698.0, 18700.0, 18708.0, 18710.0, 18694.0, 18692.0, 18690.0, 18702.0, 18706.0, 18716.0, 18724.0, 18714.0, 18704.0, 18690.0, 18692.0, 18696.0, 18704.0, 18712.0, 18702.0, 18696.0, 18696.0, 18702.0, 18710.0, 18688.0, 18722.0, 18692.0, 18644.0, 18656.0, 18692.0, 18710.0, 18688.0, 18652.0, 18718.0, 18690.0, 18646.0, 18648.0, 18694.0, 18720.0, 18720.0, 18702.0, 18686.0, 18686.0, 18652.0, 18692.0, 18718.0, 18688.0, 18644.0, 18688.0, 18698.0, 18638.0, 18594.0, 18568.0]
    },
    "slices": {}
  }
}