{
  "AcquisitionMatrixPE": 104,
  "AcquisitionNumber": 1,
  "AcquisitionTime": "18:17:26.100000",
  "BandwidthPerPixelPhaseEncode": 17.17,
  "BaseResolution": 104,
  "BodyPartExamined": "BRAIN",
  "CoilString": "HC1-7;NC1_2",
  "ConsistencyInfo": "N4_VE11C_LATEST_20160120",
  "ConversionSoftware": "dcm2niix",
  "ConversionSoftwareVersion": "v1.0.20190902",
  "DerivedVendorReportedEchoSpacing": 0.000560011,
  "DeviceSerialNumber": "167006",
  "DwellTime": 2.1e-06,
  "EchoTime": 0.037,
  "EchoTrainLength": 104,
  "EffectiveEchoSpacing": 0.000560011,
  "FlipAngle": 52,
  "ImageComments": "Unaliased_MB4_PE3_LB",
  "ImageOrientationPatientDICOM": [0.996128, 0.0779363, 0.0406714, -0.0563898, 0.921396, -0.384512],
  "ImageType": [
    "ORIGINAL",
    "PRIMARY",
    "P",
    "MB",
    "ND",
    "MOSAIC"
],
  "ImagingFrequency": 123.259,
  "InPlanePhaseEncodingDirectionDICOM": "COL",
  "InstitutionAddress": "Chemin_Queen-Mary_4565_Montreal_District_CA_H3W_1W5",
  "InstitutionName": "IUGM",
  "InstitutionalDepartmentName": "Department",
  "MRAcquisitionType": "2D",
  "MagneticFieldStrength": 3,
  "Manufacturer": "Siemens",
  "ManufacturersModelName": "Prisma_fit",
  "Modality": "MR",
  "MultibandAccelerationFactor": 4,
  "PartialFourier": 1,
  "PatientPosition": "HFS",
  "PercentPhaseFOV": 100,
  "PhaseEncodingDirection": "j",
  "PhaseEncodingSteps": 104,
  "PhaseResolution": 1,
  "PixelBandwidth": 2290,
  "ProcedureStepDescription": "localizers_retinotopy",
  "ProtocolName": "func_task-wedges",
  "PulseSequenceDetails": "%CustomerSeq%_cmrr_mbep2d_bold",
  "ReceiveCoilActiveElements": "HC1-7;NC1,2",
  "ReceiveCoilName": "HeadNeck_64",
  "ReconMatrixPE": 104,
  "RepetitionTime": 1.49,
  "SAR": 0.0371607,
  "ScanOptions": "FS",
  "ScanningSequence": "EP",
  "SequenceName": "epfid2d1_104",
  "SequenceVariant": "SK_SS",
  "SeriesDescription": "func_task-wedges",
  "SeriesNumber": 11,
  "ShimSetting": [639, -7193, -8831, 643, 109, -9, -65, -5],
  "SliceThickness": 2,
  "SliceTiming": [0, 0.785, 0.0975, 0.8825, 0.195, 0.98, 0.295, 1.0775, 0.3925, 1.175, 0.49, 1.275, 0.5875, 1.3725, 0.685, 0, 0.785, 0.0975, 0.8825, 0.195, 0.98, 0.295, 1.0775, 0.3925, 1.175, 0.49, 1.275, 0.5875, 1.3725, 0.685, 0, 0.785, 0.0975, 0.8825, 0.195, 0.98, 0.295, 1.0775, 0.3925, 1.175, 0.49, 1.275, 0.5875, 1.3725, 0.685, 0, 0.785, 0.0975, 0.8825, 0.195, 0.98, 0.295, 1.0775, 0.3925, 1.175, 0.49, 1.275, 0.5875, 1.3725, 0.685],
  "SoftwareVersions": "syngo_MR_E11",
  "SpacingBetweenSlices": 2,
  "StationName": "MRC35049",
  "TaskName": "wedges",
  "TotalReadoutTime": 0.0576811,
  "TxRefAmp": 246.543,
  "WipMemBlock": "52b63e6b-4b58-4a77-a44a-13b256f3f6b3||Sequence: R016 ve11c/master r/e634e98; Dec 19 2017 11:00:25 by eja",
  "dcmmeta_affine": [
    [-1.992256760597229, -0.11277969926595688, 0.13488371670246124, 108.9867172241211],
    [-0.15587250888347626, 1.8427921533584595, -0.7614597678184509, -49.66594696044922],
    [0.08134271949529648, 0.7690240144729614, 1.844447135925293, -64.34931182861328],
    [0.0, 0.0, 0.0, 1.0]
],
  "dcmmeta_reorient_transform": [
    [0.0, -1.0, 0.0, 103.0],
    [1.0, 0.0, 0.0, 0.0],
    [0.0, 0.0, 1.0, 0.0],
    [0.0, 0.0, 0.0, 1.0]
],
  "dcmmeta_shape": [104, 104, 60, 202],
  "dcmmeta_slice_dim": 2,
  "dcmmeta_version": 0.6,
  "global": {
    "const": {
      "AcquisitionMatrix": [104, 0, 0, 104],
      "AngioFlag": "N",
      "BitsAllocated": 16,
      "BitsStored": 16,
      "BodyPartExamined": "BRAIN",
      "Columns": 832,
      "EchoNumbers": 1,
      "EchoTime": 37.0,
      "EchoTrainLength": 104,
      "FlipAngle": 52.0,
      "HighBit": 15,
      "ImageOrientationPatient": [0.99612839598405, 0.0779362515744, 0.04067135853123, -0.0563898483056, 0.9213960589613, -0.3845120122164],
      "ImagePositionPatient": [-781.50007223938, -867.6555648242, 265.17615857671],
      "ImageType": [
        "ORIGINAL",
        "PRIMARY",
        "P",
        "MB",
        "ND",
        "MOSAIC"
],
      "ImagedNucleus": "1H",
      "ImagingFrequency": 123.25896,
      "InPlanePhaseEncodingDirection": "COL",
      "LargestImagePixelValue": 4095,
      "MRAcquisitionType": "2D",
      "MagneticFieldStrength": 3.0,
      "Manufacturer": "SIEMENS",
      "ManufacturerModelName": "Prisma_fit",
      "Modality": "MR",
      "NumberOfAverages": 1.0,
      "NumberOfPhaseEncodingSteps": 104,
      "PercentPhaseFieldOfView": 100.0,
      "PercentSampling": 100.0,
      "PerformedProcedureStepStartTime": "181434.717000",
      "PhotometricInterpretation": "MONOCHROME2",
      "PixelBandwidth": 2290.0,
      "PixelRepresentation": 0,
      "PixelSpacing": [2.0, 2.0],
      "ProtocolName": "func_task-wedges",
      "RepetitionTime": 1490.0,
      "RescaleIntercept": -4096.0,
      "RescaleSlope": 2.0,
      "RescaleType": "US",
      "Rows": 832,
      "SAR": 0.03716068497557,
      "SamplesPerPixel": 1,
      "ScanOptions": "FS",
      "ScanningSequence": "EP",
      "SequenceName": "epfid2d1_104",
      "SequenceVariant": [
        "SK",
        "SS"
],
      "SeriesDescription": "func_task-wedges",
      "SeriesNumber": 11,
      "SeriesTime": "181925.050000",
      "SliceLocation": -33.084877547924,
      "SliceThickness": 2.0,
      "SmallestImagePixelValue": 0,
      "SoftwareVersions": "syngo MR E11",
      "SpacingBetweenSlices": 2.0000000100765,
      "SpecificCharacterSet": "ISO_IR 100",
      "StudyID": "1",
      "StudyTime": "181434.629000",
      "TransmitCoilName": "Body",
      "VariableFlipAngleFlag": "N",
      "WindowCenterWidthExplanation": "Algo1",
      "dBdt": 0.0},
    "slices": {}
  },
  "time": {
    "samples": {
      "AcquisitionNumber": [1, 2, 3, 4, 5, 6, 7, 8, 9, 10, 11, 12, 13, 14, 15, 16, 17, 18, 19, 20, 21, 22, 23, 24, 25, 26, 27, 28, 29, 30, 31, 32, 33, 34, 35, 36, 37, 38, 39, 40, 41, 42, 43, 44, 45, 46, 47, 48, 49, 50, 51, 52, 53, 54, 55, 56, 57, 58, 59, 60, 61, 62, 63, 64, 65, 66, 67, 68, 69, 70, 71, 72, 73, 74, 75, 76, 77, 78, 79, 80, 81, 82, 83, 84, 85, 86, 87, 88, 89, 90, 91, 92, 93, 94, 95, 96, 97, 98, 99, 100, 101, 102, 103, 104, 105, 106, 107, 108, 109, 110, 111, 112, 113, 114, 115, 116, 117, 118, 119, 120, 121, 122, 123, 124, 125, 126, 127, 128, 129, 130, 131, 132, 133, 134, 135, 136, 137, 138, 139, 140, 141, 142, 143, 144, 145, 146, 147, 148, 149, 150, 151, 152, 153, 154, 155, 156, 157, 158, 159, 160, 161, 162, 163, 164, 165, 166, 167, 168, 169, 170, 171, 172, 173, 174, 175, 176, 177, 178, 179, 180, 181, 182, 183, 184, 185, 186, 187, 188, 189, 190, 191, 192, 193, 194, 195, 196, 197, 198, 199, 200, 201, 202],
      "AcquisitionTime": ["181726.100000", "181727.590000", "181729.080000", "181730.570000", "181732.060000", "181733.550000", "181735.040000", "181736.530000", "181738.020000", "181739.510000", "181741.000000", "181742.490000", "181743.980000", "181745.470000", "181746.960000", "181748.450000", "181749.940000", "181751.430000", "181752.920000", "181754.410000", "181755.900000", "181757.390000", "181758.880000", "181800.370000", "181801.860000", "181803.350000", "181804.840000", "181806.330000", "181807.820000", "181809.310000", "181810.800000", "181812.290000", "181813.780000", "181815.270000", "181816.760000", "181818.250000", "181819.740000", "181821.230000", "181822.720000", "181824.210000", "181825.700000", "181827.190000", "181828.680000", "181830.170000", "181831.660000", "181833.150000", "181834.640000", "181836.130000", "181837.620000", "181839.110000", "181840.600000", "181842.090000", "181843.580000", "181845.070000", "181846.560000", "181848.050000", "181849.540000", "181851.030000", "181852.520000", "181854.010000", "181855.500000", "181856.990000", "181858.480000", "181859.970000", "181901.460000", "181902.950000", "181904.440000", "181905.930000", "181907.420000", "181908.910000", "181910.400000", "181911.890000", "181913.380000", "181914.870000", "181916.360000", "181917.850000", "181919.340000", "181920.830000", "181922.320000", "181923.810000", "181925.300000", "181926.790000", "181928.280000", "181929.770000", "181931.260000", "181932.750000", "181934.240000", "181935.730000", "181937.220000", "181938.710000", "181940.200000", "181941.690000", "181943.180000", "181944.670000", "181946.160000", "181947.650000", "181949.140000", "181950.630000", "181952.120000", "181953.610000", "181955.100000", "181956.590000", "181958.080000", "181959.570000", "182001.060000", "182002.550000", "182004.040000", "182005.530000", "182007.020000", "182008.510000", "182010.000000", "182011.490000", "182012.980000", "182014.470000", "182015.960000", "182017.450000", "182018.940000", "182020.430000", "182021.920000", "182023.410000", "182024.900000", "182026.390000", "182027.880000", "182029.370000", "182030.860000", "182032.350000", "182033.840000", "182035.330000", "182036.820000", "182038.310000", "182039.800000", "182041.290000", "182042.780000", "182044.270000", "182045.760000", "182047.250000", "182048.740000", "182050.230000", "182051.720000", "182053.210000", "182054.700000", "182056.190000", "182057.680000", "182059.170000", "182100.660000", "182102.150000", "182103.640000", "182105.130000", "182106.620000", "182108.110000", "182109.600000", "182111.090000", "182112.580000", "182114.070000", "182115.560000", "182117.050000", "182118.540000", "182120.030000", "182121.520000", "182123.010000", "182124.500000", "182125.990000", "182127.480000", "182128.970000", "182130.460000", "182131.950000", "182133.440000", "182134.930000", "182136.420000", "182137.910000", "182139.400000", "182140.890000", "182142.380000", "182143.870000", "182145.360000", "182146.850000", "182148.340000", "182149.830000", "182151.320000", "182152.810000", "182154.300000", "182155.790000", "182157.280000", "182158.770000", "182200.260000", "182201.750000", "182203.240000", "182204.730000", "182206.220000", "182207.710000", "182209.200000", "182210.690000", "182212.180000", "182213.670000", "182215.160000", "182216.650000", "182218.140000", "182219.630000", "182221.120000", "182222.610000", "182224.100000", "182225.590000"],
      "ContentTime": ["181925.052000", "181925.055000", "181925.058000", "181925.061000", "181925.063000", "181925.066000", "181925.069000", "181925.071000", "181925.074000", "181925.077000", "181925.079000", "181925.082000", "181925.084000", "181925.087000", "181925.089000", "181925.092000", "181925.095000", "181925.097000", "181925.100000", "181925.103000", "181925.105000", "181925.108000", "181925.110000", "181925.113000", "181925.116000", "181925.118000", "181925.121000", "181925.123000", "181925.126000", "181925.134000", "181925.136000", "181925.139000", "181925.141000", "181925.144000", "181925.147000", "181944.922000", "181944.924000", "181944.927000", "181944.929000", "181944.932000", "181944.935000", "181944.937000", "181944.940000", "181944.942000", "181944.956000", "181944.959000", "181944.962000", "181944.964000", "181944.967000", "181944.970000", "181944.973000", "181944.975000", "181944.978000", "181944.980000", "181944.983000", "182004.934000", "182004.936000", "182004.939000", "182004.941000", "182004.944000", "182004.947000", "182004.949000", "182004.952000", "182004.955000", "182004.958000", "182004.960000", "182004.963000", "182004.965000", "182004.968000", "182004.971000", "182004.974000", "182004.976000", "182004.979000", "182004.982000", "182004.984000", "182024.933000", "182024.936000", "182024.939000", "182024.941000", "182024.944000", "182024.947000", "182024.949000", "182024.952000", "182024.954000", "182024.957000", "182024.960000", "182024.962000", "182024.965000", "182024.967000", "182024.970000", "182024.972000", "182024.975000", "182024.978000", "182024.980000", "182024.989000", "182044.944000", "182044.946000", "182044.949000", "182044.951000", "182044.954000", "182044.957000", "182044.959000", "182044.962000", "182044.964000", "182044.967000", "182044.969000", "182044.972000", "182044.975000", "182044.977000", "182044.980000", "182044.982000", "182044.985000", "182044.987000", "182044.990000", "182044.993000", "182044.995000", "182104.910000", "182104.913000", "182104.915000", "182104.918000", "182104.920000", "182104.923000", "182104.925000", "182104.928000", "182104.931000", "182104.934000", "182104.936000", "182104.939000", "182104.942000", "182104.945000", "182104.947000", "182104.950000", "182104.953000", "182104.955000", "182104.958000", "182104.961000", "182124.972000", "182124.975000", "182124.977000", "182124.980000", "182124.983000", "182124.985000", "182124.988000", "182124.990000", "182124.993000", "182124.996000", "182124.998000", "182125.002000", "182125.005000", "182125.007000", "182125.010000", "182125.012000", "182125.015000", "182125.018000", "182125.020000", "182125.023000", "182145.427000", "182145.430000", "182145.433000", "182145.436000", "182145.438000", "182145.441000", "182145.444000", "182145.446000", "182145.449000", "182145.451000", "182145.454000", "182145.457000", "182145.459000", "182145.462000", "182145.464000", "182145.467000", "182145.470000", "182224.958000", "182224.962000", "182224.965000", "182224.968000", "182224.971000", "182224.975000", "182224.978000", "182224.982000", "182224.996000", "182224.998000", "182225.002000", "182225.005000", "182225.007000", "182225.010000", "182225.012000", "182225.015000", "182225.018000", "182225.020000", "182225.023000", "182225.026000", "182225.028000", "182225.031000", "182225.034000", "182225.036000", "182225.039000", "182225.042000", "182228.065000", "182228.068000", "182228.071000"],
      "InstanceCreationTime": ["181925.052000", "181925.055000", "181925.058000", "181925.061000", "181925.063000", "181925.066000", "181925.069000", "181925.071000", "181925.074000", "181925.077000", "181925.079000", "181925.082000", "181925.084000", "181925.087000", "181925.089000", "181925.092000", "181925.095000", "181925.097000", "181925.100000", "181925.103000", "181925.105000", "181925.108000", "181925.110000", "181925.113000", "181925.116000", "181925.118000", "181925.121000", "181925.123000", "181925.126000", "181925.134000", "181925.136000", "181925.139000", "181925.141000", "181925.144000", "181925.147000", "181944.922000", "181944.924000", "181944.927000", "181944.929000", "181944.932000", "181944.935000", "181944.937000", "181944.940000", "181944.942000", "181944.956000", "181944.959000", "181944.962000", "181944.964000", "181944.967000", "181944.970000", "181944.973000", "181944.975000", "181944.978000", "181944.980000", "181944.983000", "182004.934000", "182004.936000", "182004.939000", "182004.941000", "182004.944000", "182004.947000", "182004.949000", "182004.952000", "182004.955000", "182004.958000", "182004.960000", "182004.963000", "182004.965000", "182004.968000", "182004.971000", "182004.974000", "182004.976000", "182004.979000", "182004.982000", "182004.984000", "182024.933000", "182024.936000", "182024.939000", "182024.941000", "182024.944000", "182024.947000", "182024.949000", "182024.952000", "182024.954000", "182024.957000", "182024.960000", "182024.962000", "182024.965000", "182024.967000", "182024.970000", "182024.972000", "182024.975000", "182024.978000", "182024.980000", "182024.989000", "182044.944000", "182044.946000", "182044.949000", "182044.951000", "182044.954000", "182044.957000", "182044.959000", "182044.962000", "182044.964000", "182044.967000", "182044.969000", "182044.972000", "182044.975000", "182044.977000", "182044.980000", "182044.982000", "182044.985000", "182044.987000", "182044.990000", "182044.993000", "182044.995000", "182104.910000", "182104.913000", "182104.915000", "182104.918000", "182104.920000", "182104.923000", "182104.925000", "182104.928000", "182104.931000", "182104.934000", "182104.936000", "182104.939000", "182104.942000", "182104.945000", "182104.947000", "182104.950000", "182104.953000", "182104.955000", "182104.958000", "182104.961000", "182124.972000", "182124.975000", "182124.977000", "182124.980000", "182124.983000", "182124.985000", "182124.988000", "182124.990000", "182124.993000", "182124.996000", "182124.998000", "182125.002000", "182125.005000", "182125.007000", "182125.010000", "182125.012000", "182125.015000", "182125.018000", "182125.020000", "182125.023000", "182145.427000", "182145.430000", "182145.433000", "182145.436000", "182145.438000", "182145.441000", "182145.444000", "182145.446000", "182145.449000", "182145.451000", "182145.454000", "182145.457000", "182145.459000", "182145.462000", "182145.464000", "182145.467000", "182145.470000", "182224.958000", "182224.962000", "182224.965000", "182224.968000", "182224.971000", "182224.975000", "182224.978000", "182224.982000", "182224.996000", "182224.998000", "182225.002000", "182225.005000", "182225.007000", "182225.010000", "182225.012000", "182225.015000", "182225.018000", "182225.020000", "182225.023000", "182225.026000", "182225.028000", "182225.031000", "182225.034000", "182225.036000", "182225.039000", "182225.042000", "182228.065000", "182228.068000", "182228.071000"],
      "InstanceNumber": [1, 2, 3, 4, 5, 6, 7, 8, 9, 10, 11, 12, 13, 14, 15, 16, 17, 18, 19, 20, 21, 22, 23, 24, 25, 26, 27, 28, 29, 30, 31, 32, 33, 34, 35, 36, 37, 38, 39, 40, 41, 42, 43, 44, 45, 46, 47, 48, 49, 50, 51, 52, 53, 54, 55, 56, 57, 58, 59, 60, 61, 62, 63, 64, 65, 66, 67, 68, 69, 70, 71, 72, 73, 74, 75, 76, 77, 78, 79, 80, 81, 82, 83, 84, 85, 86, 87, 88, 89, 90, 91, 92, 93, 94, 95, 96, 97, 98, 99, 100, 101, 102, 103, 104, 105, 106, 107, 108, 109, 110, 111, 112, 113, 114, 115, 116, 117, 118, 119, 120, 121, 122, 123, 124, 125, 126, 127, 128, 129, 130, 131, 132, 133, 134, 135, 136, 137, 138, 139, 140, 141, 142, 143, 144, 145, 146, 147, 148, 149, 150, 151, 152, 153, 154, 155, 156, 157, 158, 159, 160, 161, 162, 163, 164, 165, 166, 167, 168, 169, 170, 171, 172, 173, 174, 175, 176, 177, 178, 179, 180, 181, 182, 183, 184, 185, 186, 187, 188, 189, 190, 191, 192, 193, 194, 195, 196, 197, 198, 199, 200, 201, 202],
      "WindowCenter": [4886.0, 4864.0, 4862.0, 4862.0, 4864.0, 4866.0, 4886.0, 4890.0, 4910.0, 4904.0, 4888.0, 4860.0, 4836.0, 4840.0, 4866.0, 4886.0, 4888.0, 4864.0, 4868.0, 4868.0, 4888.0, 4912.0, 4890.0, 4888.0, 4864.0, 4864.0, 4866.0, 4890.0, 4910.0, 4884.0, 4866.0, 4864.0, 4890.0, 4890.0, 4888.0, 4890.0, 4862.0, 4862.0, 4862.0, 4888.0, 4906.0, 4888.0, 4888.0, 4862.0, 4862.0, 4866.0, 4888.0, 4908.0, 4890.0, 4890.0, 4888.0, 4864.0, 4888.0, 4908.0, 4908.0, 4888.0, 4862.0, 4836.0, 4860.0, 4866.0, 4886.0, 4902.0, 4906.0, 4892.0, 4868.0, 4864.0, 4884.0, 4882.0, 4866.0, 4836.0, 4840.0, 4864.0, 4890.0, 4888.0, 4908.0, 4906.0, 4888.0, 4890.0, 4864.0, 4862.0, 4886.0, 4888.0, 4864.0, 4890.0, 4904.0, 4898.0, 4886.0, 4862.0, 4860.0, 4860.0, 4882.0, 4898.0, 4906.0, 4886.0, 4862.0, 4860.0, 4862.0, 4884.0, 4902.0, 4896.0, 4872.0, 4902.0, 4858.0, 4806.0, 4798.0, 4770.0, 4834.0, 4890.0, 4902.0, 4856.0, 4858.0, 4908.0, 4888.0, 4840.0, 4834.0, 4864.0, 4888.0, 4888.0, 4868.0, 4888.0, 4890.0, 4910.0, 4912.0, 4910.0, 4906.0, 4906.0, 4866.0, 4862.0, 4838.0, 4862.0, 4888.0, 4880.0, 4906.0, 4892.0, 4890.0, 4888.0, 4888.0, 4902.0, 4896.0, 4882.0, 4862.0, 4802.0, 4800.0, 4832.0, 4890.0, 4908.0, 4866.0, 4904.0, 4910.0, 4890.0, 4866.0, 4864.0, 4888.0, 4888.0, 4890.0, 4864.0, 4868.0, 4890.0, 4916.0, 4910.0, 4900.0, 4892.0, 4894.0, 4884.0, 4832.0, 4800.0, 4796.0, 4804.0, 4866.0, 4886.0, 4894.0, 4828.0, 4894.0, 4888.0, 4838.0, 4836.0, 4832.0, 4842.0, 4892.0, 4906.0, 4904.0, 4910.0, 4910.0, 4894.0, 4892.0, 4892.0, 4890.0, 4888.0, 4890.0, 4892.0, 4892.0, 4892.0, 4892.0, 4910.0, 4908.0, 4890.0, 4890.0, 4868.0, 4866.0, 4890.0, 4890.0, 4908.0],
      "WindowWidth": [18642.0, 18608.0, 18604.0, 18602.0, 18606.0, 18610.0, 18644.0, 18658.0, 18702.0, 18698.0, 18652.0, 18602.0, 18570.0, 18576.0, 18612.0, 18656.0, 18652.0, 18610.0, 18614.0, 18614.0, 18648.0, 18692.0, 18658.0, 18636.0, 18604.0, 18606.0, 18612.0, 18654.0, 18684.0, 18638.0, 18610.0, 18604.0, 18644.0, 18658.0, 18662.0, 18644.0, 18602.0, 18606.0, 18606.0, 18654.0, 18692.0, 18658.0, 18644.0, 18606.0, 18600.0, 18602.0, 18648.0, 18692.0, 18656.0, 18646.0, 18642.0, 18608.0, 18642.0, 18700.0, 18696.0, 18648.0, 18610.0, 18570.0, 18600.0, 18606.0, 18648.0, 18698.0, 18694.0, 18656.0, 18610.0, 18610.0, 18652.0, 18654.0, 18610.0, 18568.0, 18572.0, 18604.0, 18642.0, 18654.0, 18698.0, 18696.0, 18656.0, 18644.0, 18606.0, 18606.0, 18640.0, 18646.0, 18608.0, 18648.0, 18700.0, 18700.0, 18660.0, 18604.0, 18604.0, 18602.0, 18650.0, 18702.0, 18694.0, 18644.0, 18602.0, 18600.0, 18606.0, 18642.0, 18706.0, 18716.0, 18686.0, 18702.0, 18606.0, 18542.0, 18544.0, 18512.0, 18564.0, 18638.0, 18710.0, 18684.0, 18680.0, 18706.0, 18644.0, 18572.0, 18568.0, 18602.0, 18644.0, 18644.0, 18612.0, 18642.0, 18652.0, 18684.0, 18688.0, 18696.0, 18700.0, 18696.0, 18614.0, 18594.0, 18570.0, 18602.0, 18644.0, 18664.0, 18694.0, 18656.0, 18648.0, 18640.0, 18660.0, 18702.0, 18712.0, 18664.0, 18608.0, 18544.0, 18538.0, 18564.0, 18638.0, 18710.0, 18684.0, 18718.0, 18692.0, 18648.0, 18604.0, 18606.0, 18644.0, 18658.0, 18638.0, 18602.0, 18608.0, 18642.0, 18686.0, 18690.0, 18714.0, 18720.0, 18714.0, 18664.0, 18572.0, 18546.0, 18550.0, 18542.0, 18604.0, 18652.0, 18720.0, 18652.0, 18724.0, 18654.0, 18566.0, 18566.0, 18566.0, 18570.0, 18644.0, 18690.0, 18708.0, 18696.0, 18682.0, 18652.0, 18644.0, 18640.0, 18650.0, 18656.0, 18652.0, 18644.0, 18646.0, 18648.0, 18654.0, 18692.0, 18690.0, 18652.0, 18642.0, 18612.0, 18608.0, 18642.0, 18648.0, 18696.0]
    },
    "slices": {}
  }
}