{
  "AcquisitionMatrixPE": 104,
  "AcquisitionNumber": 1,
  "AcquisitionTime": "14:18:32.170000",
  "BandwidthPerPixelPhaseEncode": 17.17,
  "BaseResolution": 104,
  "BodyPartExamined": "BRAIN",
  "CoilString": "HC1-7;NC1_2",
  "ConsistencyInfo": "N4_VE11C_LATEST_20160120",
  "ConversionSoftware": "dcm2niix",
  "ConversionSoftwareVersion": "v1.0.20190902",
  "DerivedVendorReportedEchoSpacing": 0.000560011,
  "DeviceSerialNumber": "167006",
  "DwellTime": 2.1e-06,
  "EchoTime": 0.037,
  "EchoTrainLength": 104,
  "EffectiveEchoSpacing": 0.000560011,
  "FlipAngle": 52,
  "ImageComments": "Unaliased_MB4_PE3_LB",
  "ImageOrientationPatientDICOM": [0.999342, 0.0116536, 0.0343403, -0.00191863, 0.962623, -0.270839],
  "ImageType": [
    "ORIGINAL",
    "PRIMARY",
    "M",
    "MB",
    "ND",
    "MOSAIC"
],
  "ImagingFrequency": 123.259,
  "InPlanePhaseEncodingDirectionDICOM": "COL",
  "InstitutionAddress": "Chemin_Queen-Mary_4565_Montreal_District_CA_H3W_1W5",
  "InstitutionName": "IUGM",
  "InstitutionalDepartmentName": "Department",
  "MRAcquisitionType": "2D",
  "MagneticFieldStrength": 3,
  "Manufacturer": "Siemens",
  "ManufacturersModelName": "Prisma_fit",
  "Modality": "MR",
  "MultibandAccelerationFactor": 4,
  "PartialFourier": 1,
  "PatientPosition": "HFS",
  "PercentPhaseFOV": 100,
  "PhaseEncodingDirection": "j",
  "PhaseEncodingSteps": 104,
  "PhaseResolution": 1,
  "PixelBandwidth": 2290,
  "ProcedureStepDescription": "localizers_retinotopy",
  "ProtocolName": "func_task-bars",
  "PulseSequenceDetails": "%CustomerSeq%_cmrr_mbep2d_bold",
  "ReceiveCoilActiveElements": "HC1-7;NC1,2",
  "ReceiveCoilName": "HeadNeck_64",
  "ReconMatrixPE": 104,
  "RepetitionTime": 1.49,
  "SAR": 0.0678108,
  "ScanOptions": "FS",
  "ScanningSequence": "EP",
  "SequenceName": "epfid2d1_104",
  "SequenceVariant": "SK_SS",
  "SeriesDescription": "func_task-bars",
  "SeriesNumber": 16,
  "ShimSetting": [636, -7209, -8768, 690, 61, 31, 64, 8],
  "SliceThickness": 2,
  "SliceTiming": [0, 0.785, 0.0975, 0.8825, 0.1975, 0.98, 0.295, 1.0775, 0.3925, 1.1775, 0.49, 1.275, 0.5875, 1.3725, 0.6875, 0, 0.785, 0.0975, 0.8825, 0.1975, 0.98, 0.295, 1.0775, 0.3925, 1.1775, 0.49, 1.275, 0.5875, 1.3725, 0.6875, 0, 0.785, 0.0975, 0.8825, 0.1975, 0.98, 0.295, 1.0775, 0.3925, 1.1775, 0.49, 1.275, 0.5875, 1.3725, 0.6875, 0, 0.785, 0.0975, 0.8825, 0.1975, 0.98, 0.295, 1.0775, 0.3925, 1.1775, 0.49, 1.275, 0.5875, 1.3725, 0.6875],
  "SoftwareVersions": "syngo_MR_E11",
  "SpacingBetweenSlices": 2,
  "StationName": "MRC35049",
  "TaskName": "bars",
  "TotalReadoutTime": 0.0576811,
  "TxRefAmp": 271.307,
  "WipMemBlock": "5a5d5f1b-8182-4311-b483-3bf1931ac71d||Sequence: R016 ve11c/master r/e634e98; Dec 19 2017 11:00:25 by eja",
  "dcmmeta_affine": [
    [-1.9986845254898071, -0.003837267402559519, 0.0724259465932846, 107.68640899658203],
    [-0.023307284340262413, 1.9252454042434692, -0.5411904454231262, -72.71220397949219],
    [0.06868050992488861, 0.5416784882545471, 1.9240237474441528, -59.25651931762695],
    [0.0, 0.0, 0.0, 1.0]
],
  "dcmmeta_reorient_transform": [
    [0.0, -1.0, 0.0, 103.0],
    [1.0, 0.0, 0.0, 0.0],
    [0.0, 0.0, 1.0, 0.0],
    [0.0, 0.0, 0.0, 1.0]
],
  "dcmmeta_shape": [104, 104, 60, 202],
  "dcmmeta_slice_dim": 2,
  "dcmmeta_version": 0.6,
  "global": {
    "const": {
      "AcquisitionMatrix": [104, 0, 0, 104],
      "AngioFlag": "N",
      "BitsAllocated": 16,
      "BitsStored": 16,
      "BodyPartExamined": "BRAIN",
      "Columns": 832,
      "EchoNumbers": 1,
      "EchoTime": 37.0,
      "EchoTrainLength": 104,
      "FlipAngle": 52.0,
      "HighBit": 15,
      "ImageOrientationPatient": [0.99934225341909, 0.01165364259783, 0.03434025546588, -0.0019186336945, 0.96262267848523, -0.270839246991],
      "ImagePositionPatient": [-833.41556344441, -834.86122769335, 168.7076325981],
      "ImageType": [
        "ORIGINAL",
        "PRIMARY",
        "M",
        "MB",
        "ND",
        "MOSAIC"
],
      "ImagedNucleus": "1H",
      "ImagingFrequency": 123.258942,
      "InPlanePhaseEncodingDirection": "COL",
      "MRAcquisitionType": "2D",
      "MagneticFieldStrength": 3.0,
      "Manufacturer": "SIEMENS",
      "ManufacturerModelName": "Prisma_fit",
      "Modality": "MR",
      "NumberOfAverages": 1.0,
      "NumberOfPhaseEncodingSteps": 104,
      "PercentPhaseFieldOfView": 100.0,
      "PercentSampling": 100.0,
      "PerformedProcedureStepStartTime": "140205.026000",
      "PhotometricInterpretation": "MONOCHROME2",
      "PixelBandwidth": 2290.0,
      "PixelRepresentation": 0,
      "PixelSpacing": [2.0, 2.0],
      "ProtocolName": "func_task-bars",
      "RepetitionTime": 1490.0,
      "Rows": 832,
      "SAR": 0.06781076197718,
      "SamplesPerPixel": 1,
      "ScanOptions": "FS",
      "ScanningSequence": "EP",
      "SequenceName": "epfid2d1_104",
      "SequenceVariant": [
        "SK",
        "SS"
],
      "SeriesDescription": "func_task-bars",
      "SeriesNumber": 16,
      "SeriesTime": "142003.586000",
      "SliceLocation": -33.430254138917,
      "SliceThickness": 2.0,
      "SmallestImagePixelValue": 0,
      "SoftwareVersions": "syngo MR E11",
      "SpacingBetweenSlices": 1.9999999626876,
      "SpecificCharacterSet": "ISO_IR 100",
      "StudyID": "1",
      "StudyTime": "140204.949000",
      "TransmitCoilName": "Body",
      "VariableFlipAngleFlag": "N",
      "WindowCenterWidthExplanation": "Algo1",
      "dBdt": 0.0},
    "slices": {}
  },
  "time": {
    "samples": {
      "AcquisitionNumber": [1, 2, 3, 4, 5, 6, 7, 8, 9, 10, 11, 12, 13, 14, 15, 16, 17, 18, 19, 20, 21, 22, 23, 24, 25, 26, 27, 28, 29, 30, 31, 32, 33, 34, 35, 36, 37, 38, 39, 40, 41, 42, 43, 44, 45, 46, 47, 48, 49, 50, 51, 52, 53, 54, 55, 56, 57, 58, 59, 60, 61, 62, 63, 64, 65, 66, 67, 68, 69, 70, 71, 72, 73, 74, 75, 76, 77, 78, 79, 80, 81, 82, 83, 84, 85, 86, 87, 88, 89, 90, 91, 92, 93, 94, 95, 96, 97, 98, 99, 100, 101, 102, 103, 104, 105, 106, 107, 108, 109, 110, 111, 112, 113, 114, 115, 116, 117, 118, 119, 120, 121, 122, 123, 124, 125, 126, 127, 128, 129, 130, 131, 132, 133, 134, 135, 136, 137, 138, 139, 140, 141, 142, 143, 144, 145, 146, 147, 148, 149, 150, 151, 152, 153, 154, 155, 156, 157, 158, 159, 160, 161, 162, 163, 164, 165, 166, 167, 168, 169, 170, 171, 172, 173, 174, 175, 176, 177, 178, 179, 180, 181, 182, 183, 184, 185, 186, 187, 188, 189, 190, 191, 192, 193, 194, 195, 196, 197, 198, 199, 200, 201, 202],
      "AcquisitionTime": ["141832.170000", "141833.660000", "141835.150000", "141836.640000", "141838.130000", "141839.620000", "141841.110000", "141842.600000", "141844.090000", "141845.580000", "141847.070000", "141848.560000", "141850.050000", "141851.540000", "141853.030000", "141854.520000", "141856.010000", "141857.500000", "141858.990000", "141900.480000", "141901.970000", "141903.460000", "141904.950000", "141906.440000", "141907.930000", "141909.420000", "141910.910000", "141912.400000", "141913.890000", "141915.380000", "141916.870000", "141918.360000", "141919.850000", "141921.340000", "141922.830000", "141924.320000", "141925.810000", "141927.300000", "141928.790000", "141930.280000", "141931.770000", "141933.260000", "141934.750000", "141936.240000", "141937.730000", "141939.220000", "141940.710000", "141942.200000", "141943.690000", "141945.180000", "141946.670000", "141948.160000", "141949.650000", "141951.140000", "141952.630000", "141954.120000", "141955.610000", "141957.100000", "141958.590000", "142000.080000", "142001.570000", "142003.060000", "142004.550000", "142006.040000", "142007.530000", "142009.020000", "142010.510000", "142012.000000", "142013.490000", "142014.980000", "142016.470000", "142017.960000", "142019.450000", "142020.940000", "142022.430000", "142023.920000", "142025.410000", "142026.900000", "142028.390000", "142029.880000", "142031.370000", "142032.860000", "142034.350000", "142035.840000", "142037.330000", "142038.820000", "142040.310000", "142041.800000", "142043.290000", "142044.780000", "142046.270000", "142047.760000", "142049.250000", "142050.740000", "142052.230000", "142053.720000", "142055.210000", "142056.700000", "142058.190000", "142059.680000", "142101.170000", "142102.660000", "142104.150000", "142105.640000", "142107.130000", "142108.620000", "142110.110000", "142111.600000", "142113.090000", "142114.580000", "142116.070000", "142117.560000", "142119.050000", "142120.540000", "142122.030000", "142123.520000", "142125.010000", "142126.500000", "142127.990000", "142129.480000", "142130.970000", "142132.460000", "142133.950000", "142135.440000", "142136.930000", "142138.420000", "142139.910000", "142141.400000", "142142.890000", "142144.380000", "142145.870000", "142147.360000", "142148.850000", "142150.340000", "142151.830000", "142153.320000", "142154.810000", "142156.300000", "142157.790000", "142159.280000", "142200.770000", "142202.260000", "142203.750000", "142205.240000", "142206.730000", "142208.220000", "142209.710000", "142211.200000", "142212.690000", "142214.180000", "142215.670000", "142217.160000", "142218.650000", "142220.140000", "142221.630000", "142223.120000", "142224.610000", "142226.100000", "142227.590000", "142229.080000", "142230.570000", "142232.060000", "142233.550000", "142235.040000", "142236.530000", "142238.020000", "142239.510000", "142241.000000", "142242.490000", "142243.980000", "142245.470000", "142246.960000", "142248.450000", "142249.940000", "142251.430000", "142252.920000", "142254.410000", "142255.900000", "142257.390000", "142258.880000", "142300.370000", "142301.860000", "142303.350000", "142304.840000", "142306.330000", "142307.820000", "142309.310000", "142310.800000", "142312.290000", "142313.780000", "142315.270000", "142316.760000", "142318.250000", "142319.740000", "142321.230000", "142322.720000", "142324.210000", "142325.700000", "142327.190000", "142328.680000", "142330.170000", "142331.660000"],
      "ContentTime": ["142003.590000", "142003.594000", "142003.602000", "142003.605000", "142003.609000", "142003.612000", "142003.616000", "142003.619000", "142003.622000", "142003.626000", "142003.629000", "142003.633000", "142003.636000", "142003.640000", "142003.643000", "142003.647000", "142003.650000", "142003.653000", "142003.657000", "142003.660000", "142003.664000", "142003.667000", "142003.671000", "142003.674000", "142003.677000", "142003.681000", "142003.684000", "142003.688000", "142003.699000", "142003.702000", "142003.705000", "142003.709000", "142003.712000", "142003.716000", "142003.719000", "142003.723000", "142003.726000", "142003.730000", "142003.733000", "142023.535000", "142023.539000", "142023.542000", "142023.546000", "142023.549000", "142023.553000", "142023.556000", "142023.560000", "142023.563000", "142023.567000", "142023.570000", "142023.574000", "142023.578000", "142023.591000", "142023.594000", "142023.598000", "142023.608000", "142023.611000", "142023.615000", "142023.618000", "142043.535000", "142043.539000", "142043.542000", "142043.546000", "142043.549000", "142043.553000", "142043.556000", "142043.559000", "142043.563000", "142043.566000", "142043.570000", "142043.573000", "142043.577000", "142043.580000", "142043.583000", "142043.587000", "142043.590000", "142043.594000", "142043.597000", "142043.601000", "142103.535000", "142103.539000", "142103.542000", "142103.546000", "142103.549000", "142103.553000", "142103.556000", "142103.559000", "142103.563000", "142103.566000", "142103.570000", "142103.573000", "142103.577000", "142103.580000", "142103.584000", "142103.587000", "142103.590000", "142103.594000", "142103.597000", "142103.601000", "142103.604000", "142143.535000", "142143.539000", "142143.543000", "142143.546000", "142143.550000", "142143.553000", "142143.556000", "142143.560000", "142143.564000", "142143.568000", "142143.571000", "142143.575000", "142143.578000", "142143.582000", "142143.585000", "142143.588000", "142143.592000", "142143.595000", "142143.599000", "142143.602000", "142143.606000", "142143.609000", "142143.613000", "142143.616000", "142143.620000", "142143.623000", "142143.626000", "142143.630000", "142223.535000", "142223.539000", "142223.542000", "142223.546000", "142223.557000", "142223.560000", "142223.563000", "142223.567000", "142223.571000", "142223.574000", "142223.577000", "142223.581000", "142223.584000", "142223.588000", "142223.591000", "142223.595000", "142223.598000", "142223.602000", "142223.605000", "142223.609000", "142223.612000", "142223.616000", "142223.619000", "142223.637000", "142223.641000", "142223.644000", "142223.648000", "142303.535000", "142303.539000", "142303.543000", "142303.546000", "142303.549000", "142303.553000", "142303.556000", "142303.560000", "142303.565000", "142303.571000", "142303.575000", "142303.578000", "142303.582000", "142303.585000", "142303.590000", "142303.594000", "142303.598000", "142303.601000", "142303.604000", "142303.608000", "142303.611000", "142303.614000", "142303.618000", "142303.621000", "142303.625000", "142303.628000", "142333.441000", "142333.445000", "142333.449000", "142333.452000", "142333.455000", "142333.459000", "142333.462000", "142333.466000", "142333.469000", "142333.472000", "142333.476000", "142333.479000", "142333.483000", "142333.486000", "142333.490000", "142333.493000", "142333.496000", "142333.500000", "142333.503000", "142333.506000", "142333.510000"],
      "InstanceCreationTime": ["142003.590000", "142003.594000", "142003.602000", "142003.605000", "142003.609000", "142003.612000", "142003.616000", "142003.619000", "142003.622000", "142003.626000", "142003.629000", "142003.633000", "142003.636000", "142003.640000", "142003.643000", "142003.647000", "142003.650000", "142003.653000", "142003.657000", "142003.660000", "142003.664000", "142003.667000", "142003.671000", "142003.674000", "142003.677000", "142003.681000", "142003.684000", "142003.688000", "142003.699000", "142003.702000", "142003.705000", "142003.709000", "142003.712000", "142003.716000", "142003.719000", "142003.723000", "142003.726000", "142003.730000", "142003.733000", "142023.535000", "142023.539000", "142023.542000", "142023.546000", "142023.549000", "142023.553000", "142023.556000", "142023.560000", "142023.563000", "142023.567000", "142023.570000", "142023.574000", "142023.578000", "142023.591000", "142023.594000", "142023.598000", "142023.608000", "142023.611000", "142023.615000", "142023.618000", "142043.535000", "142043.539000", "142043.542000", "142043.546000", "142043.549000", "142043.553000", "142043.556000", "142043.559000", "142043.563000", "142043.566000", "142043.570000", "142043.573000", "142043.577000", "142043.580000", "142043.583000", "142043.587000", "142043.590000", "142043.594000", "142043.597000", "142043.601000", "142103.535000", "142103.539000", "142103.542000", "142103.546000", "142103.549000", "142103.553000", "142103.556000", "142103.559000", "142103.563000", "142103.566000", "142103.570000", "142103.573000", "142103.577000", "142103.580000", "142103.584000", "142103.587000", "142103.590000", "142103.594000", "142103.597000", "142103.601000", "142103.604000", "142143.535000", "142143.539000", "142143.543000", "142143.546000", "142143.550000", "142143.553000", "142143.556000", "142143.560000", "142143.564000", "142143.568000", "142143.571000", "142143.575000", "142143.578000", "142143.582000", "142143.585000", "142143.588000", "142143.592000", "142143.595000", "142143.599000", "142143.602000", "142143.606000", "142143.609000", "142143.613000", "142143.616000", "142143.620000", "142143.623000", "142143.626000", "142143.630000", "142223.535000", "142223.539000", "142223.542000", "142223.546000", "142223.557000", "142223.560000", "142223.563000", "142223.567000", "142223.571000", "142223.574000", "142223.577000", "142223.581000", "142223.584000", "142223.588000", "142223.591000", "142223.595000", "142223.598000", "142223.602000", "142223.605000", "142223.609000", "142223.612000", "142223.616000", "142223.619000", "142223.637000", "142223.641000", "142223.644000", "142223.648000", "142303.535000", "142303.539000", "142303.543000", "142303.546000", "142303.549000", "142303.553000", "142303.556000", "142303.560000", "142303.565000", "142303.571000", "142303.575000", "142303.578000", "142303.582000", "142303.585000", "142303.590000", "142303.594000", "142303.598000", "142303.601000", "142303.604000", "142303.608000", "142303.611000", "142303.614000", "142303.618000", "142303.621000", "142303.625000", "142303.628000", "142333.441000", "142333.445000", "142333.449000", "142333.452000", "142333.455000", "142333.459000", "142333.462000", "142333.466000", "142333.469000", "142333.472000", "142333.476000", "142333.479000", "142333.483000", "142333.486000", "142333.490000", "142333.493000", "142333.496000", "142333.500000", "142333.503000", "142333.506000", "142333.510000"],
      "InstanceNumber": [1, 2, 3, 4, 5, 6, 7, 8, 9, 10, 11, 12, 13, 14, 15, 16, 17, 18, 19, 20, 21, 22, 23, 24, 25, 26, 27, 28, 29, 30, 31, 32, 33, 34, 35, 36, 37, 38, 39, 40, 41, 42, 43, 44, 45, 46, 47, 48, 49, 50, 51, 52, 53, 54, 55, 56, 57, 58, 59, 60, 61, 62, 63, 64, 65, 66, 67, 68, 69, 70, 71, 72, 73, 74, 75, 76, 77, 78, 79, 80, 81, 82, 83, 84, 85, 86, 87, 88, 89, 90, 91, 92, 93, 94, 95, 96, 97, 98, 99, 100, 101, 102, 103, 104, 105, 106, 107, 108, 109, 110, 111, 112, 113, 114, 115, 116, 117, 118, 119, 120, 121, 122, 123, 124, 125, 126, 127, 128, 129, 130, 131, 132, 133, 134, 135, 136, 137, 138, 139, 140, 141, 142, 143, 144, 145, 146, 147, 148, 149, 150, 151, 152, 153, 154, 155, 156, 157, 158, 159, 160, 161, 162, 163, 164, 165, 166, 167, 168, 169, 170, 171, 172, 173, 174, 175, 176, 177, 178, 179, 180, 181, 182, 183, 184, 185, 186, 187, 188, 189, 190, 191, 192, 193, 194, 195, 196, 197, 198, 199, 200, 201, 202],
      "LargestImagePixelValue": [41020, 39862, 39923, 39304, 38938, 39235, 38635, 38225, 38663, 38791, 38307, 39136, 38881, 39001, 38634, 38997, 38548, 38494, 38943, 38279, 38480, 38435, 39203, 38801, 38326, 38752, 38287, 38737, 38600, 38862, 38695, 38432, 38697, 38317, 38859, 38615, 38616, 38629, 38850, 38724, 38514, 38726, 38310, 38258, 38226, 38536, 38468, 38337, 38559, 38530, 38565, 39038, 38488, 38778, 38372, 38709, 38314, 38878, 38382, 38713, 38563, 38358, 38085, 39089, 39093, 38792, 38748, 38338, 38905, 38925, 38380, 38373, 38363, 38335, 38546, 38466, 38475, 38791, 38453, 38824, 38820, 38276, 38754, 38644, 39032, 38573, 38546, 39026, 38476, 38347, 38911, 38414, 38642, 38103, 37970, 37979, 38156, 38108, 38629, 38714, 38270, 38784, 38608, 38141, 38860, 38574, 38296, 38676, 38120, 38280, 38530, 38926, 38688, 38693, 38711, 38663, 38812, 38366, 38885, 38566, 38405, 38398, 38565, 38296, 38788, 38397, 38724, 38813, 38601, 38756, 38568, 38638, 38439, 38492, 38484, 38527, 38857, 38818, 38101, 38416, 38522, 38304, 37870, 38835, 38299, 38536, 38817, 38839, 38409, 38616, 38353, 38399, 38497, 38269, 38263, 38145, 38403, 38709, 38310, 38337, 38266, 38279, 38554, 38659, 38576, 38498, 38473, 38652, 38664, 38771, 38383, 38393, 38257, 38397, 38388, 38657, 38272, 38786, 38042, 38533, 38615, 38327, 38547, 38156, 38637, 38203, 38345, 38276, 38352, 38621, 38529, 38400, 38395, 38169, 38344, 38459, 38050, 38581, 38502, 38506, 38209, 38639],
      "WindowCenter": [10173.0, 10129.0, 10119.0, 10109.0, 10100.0, 10105.0, 10085.0, 10080.0, 10083.0, 10085.0, 10084.0, 10107.0, 10108.0, 10103.0, 10087.0, 10084.0, 10085.0, 10101.0, 10118.0, 10121.0, 10112.0, 10105.0, 10106.0, 10115.0, 10112.0, 10120.0, 10111.0, 10102.0, 10099.0, 10092.0, 10098.0, 10100.0, 10100.0, 10094.0, 10099.0, 10100.0, 10099.0, 10093.0, 10091.0, 10107.0, 10112.0, 10118.0, 10113.0, 10110.0, 10105.0, 10102.0, 10110.0, 10111.0, 10112.0, 10106.0, 10103.0, 10106.0, 10111.0, 10135.0, 10141.0, 10132.0, 10115.0, 10101.0, 10101.0, 10094.0, 10092.0, 10077.0, 10068.0, 10081.0, 10090.0, 10098.0, 10093.0, 10102.0, 10115.0, 10124.0, 10121.0, 10138.0, 10147.0, 10132.0, 10113.0, 10095.0, 10077.0, 10074.0, 10074.0, 10084.0, 10098.0, 10095.0, 10106.0, 10108.0, 10106.0, 10118.0, 10120.0, 10121.0, 10112.0, 10097.0, 10092.0, 10090.0, 10103.0, 10115.0, 10109.0, 10102.0, 10092.0, 10089.0, 10094.0, 10103.0, 10097.0, 10105.0, 10104.0, 10098.0, 10104.0, 10119.0, 10113.0, 10112.0, 10104.0, 10112.0, 10105.0, 10096.0, 10084.0, 10090.0, 10107.0, 10118.0, 10113.0, 10105.0, 10099.0, 10101.0, 10109.0, 10121.0, 10128.0, 10112.0, 10102.0, 10097.0, 10108.0, 10104.0, 10101.0, 10097.0, 10093.0, 10102.0, 10103.0, 10098.0, 10088.0, 10078.0, 10078.0, 10086.0, 10089.0, 10096.0, 10097.0, 10105.0, 10100.0, 10104.0, 10089.0, 10086.0, 10092.0, 10109.0, 10113.0, 10103.0, 10087.0, 10093.0, 10111.0, 10123.0, 10120.0, 10122.0, 10114.0, 10122.0, 10106.0, 10097.0, 10094.0, 10102.0, 10112.0, 10113.0, 10102.0, 10087.0, 10076.0, 10066.0, 10073.0, 10080.0, 10091.0, 10085.0, 10084.0, 10074.0, 10074.0, 10083.0, 10085.0, 10092.0, 10094.0, 10093.0, 10103.0, 10112.0, 10129.0, 10123.0, 10121.0, 10104.0, 10087.0, 10084.0, 10094.0, 10101.0, 10097.0, 10088.0, 10088.0, 10082.0, 10088.0, 10087.0, 10090.0, 10093.0, 10102.0, 10104.0, 10104.0, 10102.0],
      "WindowWidth": [21678.0, 21557.0, 21513.0, 21484.0, 21462.0, 21467.0, 21428.0, 21418.0, 21418.0, 21423.0, 21422.0, 21472.0, 21475.0, 21464.0, 21430.0, 21421.0, 21424.0, 21462.0, 21501.0, 21511.0, 21489.0, 21473.0, 21471.0, 21492.0, 21490.0, 21507.0, 21485.0, 21462.0, 21455.0, 21440.0, 21453.0, 21460.0, 21457.0, 21446.0, 21454.0, 21459.0, 21453.0, 21444.0, 21439.0, 21477.0, 21491.0, 21502.0, 21492.0, 21484.0, 21475.0, 21467.0, 21482.0, 21487.0, 21489.0, 21475.0, 21465.0, 21470.0, 21486.0, 21539.0, 21557.0, 21532.0, 21492.0, 21457.0, 21458.0, 21444.0, 21437.0, 21404.0, 21386.0, 21412.0, 21435.0, 21452.0, 21447.0, 21467.0, 21493.0, 21515.0, 21513.0, 21550.0, 21568.0, 21532.0, 21488.0, 21445.0, 21404.0, 21397.0, 21399.0, 21422.0, 21453.0, 21450.0, 21470.0, 21475.0, 21469.0, 21498.0, 21504.0, 21507.0, 21486.0, 21452.0, 21437.0, 21438.0, 21466.0, 21494.0, 21482.0, 21466.0, 21443.0, 21437.0, 21442.0, 21465.0, 21454.0, 21468.0, 21466.0, 21457.0, 21466.0, 21500.0, 21487.0, 21482.0, 21466.0, 21484.0, 21470.0, 21449.0, 21420.0, 21433.0, 21473.0, 21500.0, 21489.0, 21471.0, 21450.0, 21457.0, 21478.0, 21508.0, 21520.0, 21482.0, 21459.0, 21450.0, 21470.0, 21462.0, 21457.0, 21449.0, 21439.0, 21461.0, 21465.0, 21455.0, 21429.0, 21409.0, 21409.0, 21429.0, 21439.0, 21451.0, 21452.0, 21469.0, 21464.0, 21466.0, 21434.0, 21428.0, 21439.0, 21476.0, 21488.0, 21462.0, 21428.0, 21441.0, 21483.0, 21512.0, 21503.0, 21509.0, 21491.0, 21508.0, 21474.0, 21453.0, 21445.0, 21462.0, 21484.0, 21487.0, 21460.0, 21426.0, 21399.0, 21378.0, 21394.0, 21409.0, 21435.0, 21425.0, 21421.0, 21397.0, 21397.0, 21417.0, 21427.0, 21439.0, 21446.0, 21443.0, 21469.0, 21487.0, 21525.0, 21512.0, 21504.0, 21465.0, 21427.0, 21418.0, 21442.0, 21457.0, 21452.0, 21429.0, 21431.0, 21419.0, 21430.0, 21431.0, 21439.0, 21440.0, 21461.0, 21468.0, 21466.0, 21458.0]
    },
    "slices": {}
  }
}