{
  "AcquisitionMatrixPE": 104,
  "AcquisitionNumber": 1,
  "AcquisitionTime": "14:12:12.592500",
  "BandwidthPerPixelPhaseEncode": 17.17,
  "BaseResolution": 104,
  "BodyPartExamined": "BRAIN",
  "CoilString": "HC1-7;NC1_2",
  "ConsistencyInfo": "N4_VE11C_LATEST_20160120",
  "ConversionSoftware": "dcm2niix",
  "ConversionSoftwareVersion": "v1.0.20190902",
  "DerivedVendorReportedEchoSpacing": 0.000560011,
  "DeviceSerialNumber": "167006",
  "DwellTime": 2.1e-06,
  "EchoTime": 0.037,
  "EchoTrainLength": 104,
  "EffectiveEchoSpacing": 0.000560011,
  "FlipAngle": 52,
  "ImageComments": "Unaliased_MB4_PE3_LB",
  "ImageOrientationPatientDICOM": [0.999342, 0.0116536, 0.0343403, -0.00191863, 0.962623, -0.270839],
  "ImageType": [
    "ORIGINAL",
    "PRIMARY",
    "M",
    "MB",
    "ND",
    "MOSAIC"
],
  "ImagingFrequency": 123.259,
  "InPlanePhaseEncodingDirectionDICOM": "COL",
  "InstitutionAddress": "Chemin_Queen-Mary_4565_Montreal_District_CA_H3W_1W5",
  "InstitutionName": "IUGM",
  "InstitutionalDepartmentName": "Department",
  "MRAcquisitionType": "2D",
  "MagneticFieldStrength": 3,
  "Manufacturer": "Siemens",
  "ManufacturersModelName": "Prisma_fit",
  "Modality": "MR",
  "MultibandAccelerationFactor": 4,
  "PartialFourier": 1,
  "PatientPosition": "HFS",
  "PercentPhaseFOV": 100,
  "PhaseEncodingDirection": "j",
  "PhaseEncodingSteps": 104,
  "PhaseResolution": 1,
  "PixelBandwidth": 2290,
  "ProcedureStepDescription": "localizers_retinotopy",
  "ProtocolName": "func_task-rings",
  "PulseSequenceDetails": "%CustomerSeq%_cmrr_mbep2d_bold",
  "ReceiveCoilActiveElements": "HC1-7;NC1,2",
  "ReceiveCoilName": "HeadNeck_64",
  "ReconMatrixPE": 104,
  "RepetitionTime": 1.49,
  "SAR": 0.0678108,
  "ScanOptions": "FS",
  "ScanningSequence": "EP",
  "SequenceName": "epfid2d1_104",
  "SequenceVariant": "SK_SS",
  "SeriesDescription": "func_task-rings",
  "SeriesNumber": 13,
  "ShimSetting": [636, -7209, -8768, 690, 61, 31, 64, 8],
  "SliceThickness": 2,
  "SliceTiming": [0, 0.785, 0.0975, 0.8825, 0.1975, 0.98, 0.295, 1.0775, 0.3925, 1.1775, 0.49, 1.275, 0.5875, 1.3725, 0.6875, 0, 0.785, 0.0975, 0.8825, 0.1975, 0.98, 0.295, 1.0775, 0.3925, 1.1775, 0.49, 1.275, 0.5875, 1.3725, 0.6875, 0, 0.785, 0.0975, 0.8825, 0.1975, 0.98, 0.295, 1.0775, 0.3925, 1.1775, 0.49, 1.275, 0.5875, 1.3725, 0.6875, 0, 0.785, 0.0975, 0.8825, 0.1975, 0.98, 0.295, 1.0775, 0.3925, 1.1775, 0.49, 1.275, 0.5875, 1.3725, 0.6875],
  "SoftwareVersions": "syngo_MR_E11",
  "SpacingBetweenSlices": 2,
  "StationName": "MRC35049",
  "TaskName": "rings",
  "TotalReadoutTime": 0.0576811,
  "TxRefAmp": 271.307,
  "WipMemBlock": "ecadbd86-e3bb-4ca4-b41e-817aa313e7a1||Sequence: R016 ve11c/master r/e634e98; Dec 19 2017 11:00:25 by eja",
  "dcmmeta_affine": [
    [-1.9986845254898071, -0.003837267402559519, 0.0724259465932846, 107.68640899658203],
    [-0.023307284340262413, 1.9252454042434692, -0.5411904454231262, -72.71220397949219],
    [0.06868050992488861, 0.5416784882545471, 1.9240237474441528, -59.25651931762695],
    [0.0, 0.0, 0.0, 1.0]
],
  "dcmmeta_reorient_transform": [
    [0.0, -1.0, 0.0, 103.0],
    [1.0, 0.0, 0.0, 0.0],
    [0.0, 0.0, 1.0, 0.0],
    [0.0, 0.0, 0.0, 1.0]
],
  "dcmmeta_shape": [104, 104, 60, 202],
  "dcmmeta_slice_dim": 2,
  "dcmmeta_version": 0.6,
  "global": {
    "const": {
      "AcquisitionMatrix": [104, 0, 0, 104],
      "AngioFlag": "N",
      "BitsAllocated": 16,
      "BitsStored": 16,
      "BodyPartExamined": "BRAIN",
      "Columns": 832,
      "EchoNumbers": 1,
      "EchoTime": 37.0,
      "EchoTrainLength": 104,
      "FlipAngle": 52.0,
      "HighBit": 15,
      "ImageOrientationPatient": [0.99934225341909, 0.01165364259783, 0.03434025546588, -0.0019186336945, 0.96262267848523, -0.270839246991],
      "ImagePositionPatient": [-833.41556344441, -834.86122769335, 168.7076325981],
      "ImageType": [
        "ORIGINAL",
        "PRIMARY",
        "M",
        "MB",
        "ND",
        "MOSAIC"
],
      "ImagedNucleus": "1H",
      "ImagingFrequency": 123.258941,
      "InPlanePhaseEncodingDirection": "COL",
      "MRAcquisitionType": "2D",
      "MagneticFieldStrength": 3.0,
      "Manufacturer": "SIEMENS",
      "ManufacturerModelName": "Prisma_fit",
      "Modality": "MR",
      "NumberOfAverages": 1.0,
      "NumberOfPhaseEncodingSteps": 104,
      "PercentPhaseFieldOfView": 100.0,
      "PercentSampling": 100.0,
      "PerformedProcedureStepStartTime": "140205.026000",
      "PhotometricInterpretation": "MONOCHROME2",
      "PixelBandwidth": 2290.0,
      "PixelRepresentation": 0,
      "PixelSpacing": [2.0, 2.0],
      "ProtocolName": "func_task-rings",
      "RepetitionTime": 1490.0,
      "Rows": 832,
      "SAR": 0.06781076197718,
      "SamplesPerPixel": 1,
      "ScanOptions": "FS",
      "ScanningSequence": "EP",
      "SequenceName": "epfid2d1_104",
      "SequenceVariant": [
        "SK",
        "SS"
],
      "SeriesDescription": "func_task-rings",
      "SeriesNumber": 13,
      "SeriesTime": "141319.891000",
      "SliceLocation": -33.430254138917,
      "SliceThickness": 2.0,
      "SmallestImagePixelValue": 0,
      "SoftwareVersions": "syngo MR E11",
      "SpacingBetweenSlices": 1.9999999626876,
      "SpecificCharacterSet": "ISO_IR 100",
      "StudyID": "1",
      "StudyTime": "140204.949000",
      "TransmitCoilName": "Body",
      "VariableFlipAngleFlag": "N",
      "WindowCenterWidthExplanation": "Algo1",
      "dBdt": 0.0},
    "slices": {}
  },
  "time": {
    "samples": {
      "AcquisitionNumber": [1, 2, 3, 4, 5, 6, 7, 8, 9, 10, 11, 12, 13, 14, 15, 16, 17, 18, 19, 20, 21, 22, 23, 24, 25, 26, 27, 28, 29, 30, 31, 32, 33, 34, 35, 36, 37, 38, 39, 40, 41, 42, 43, 44, 45, 46, 47, 48, 49, 50, 51, 52, 53, 54, 55, 56, 57, 58, 59, 60, 61, 62, 63, 64, 65, 66, 67, 68, 69, 70, 71, 72, 73, 74, 75, 76, 77, 78, 79, 80, 81, 82, 83, 84, 85, 86, 87, 88, 89, 90, 91, 92, 93, 94, 95, 96, 97, 98, 99, 100, 101, 102, 103, 104, 105, 106, 107, 108, 109, 110, 111, 112, 113, 114, 115, 116, 117, 118, 119, 120, 121, 122, 123, 124, 125, 126, 127, 128, 129, 130, 131, 132, 133, 134, 135, 136, 137, 138, 139, 140, 141, 142, 143, 144, 145, 146, 147, 148, 149, 150, 151, 152, 153, 154, 155, 156, 157, 158, 159, 160, 161, 162, 163, 164, 165, 166, 167, 168, 169, 170, 171, 172, 173, 174, 175, 176, 177, 178, 179, 180, 181, 182, 183, 184, 185, 186, 187, 188, 189, 190, 191, 192, 193, 194, 195, 196, 197, 198, 199, 200, 201, 202],
      "AcquisitionTime": ["141212.592500", "141214.082500", "141215.572500", "141217.062500", "141218.552500", "141220.042500", "141221.532500", "141223.022500", "141224.512500", "141226.002500", "141227.492500", "141228.982500", "141230.472500", "141231.962500", "141233.452500", "141234.942500", "141236.432500", "141237.922500", "141239.412500", "141240.902500", "141242.392500", "141243.882500", "141245.372500", "141246.862500", "141248.352500", "141249.842500", "141251.332500", "141252.822500", "141254.312500", "141255.802500", "141257.292500", "141258.782500", "141300.272500", "141301.762500", "141303.252500", "141304.742500", "141306.232500", "141307.722500", "141309.212500", "141310.702500", "141312.192500", "141313.682500", "141315.172500", "141316.662500", "141318.152500", "141319.642500", "141321.132500", "141322.622500", "141324.112500", "141325.602500", "141327.092500", "141328.582500", "141330.072500", "141331.562500", "141333.052500", "141334.542500", "141336.032500", "141337.522500", "141339.012500", "141340.502500", "141341.992500", "141343.482500", "141344.972500", "141346.462500", "141347.952500", "141349.442500", "141350.932500", "141352.422500", "141353.912500", "141355.402500", "141356.892500", "141358.382500", "141359.872500", "141401.362500", "141402.852500", "141404.342500", "141405.832500", "141407.322500", "141408.812500", "141410.302500", "141411.792500", "141413.282500", "141414.772500", "141416.262500", "141417.752500", "141419.242500", "141420.732500", "141422.222500", "141423.712500", "141425.202500", "141426.692500", "141428.182500", "141429.672500", "141431.162500", "141432.652500", "141434.142500", "141435.632500", "141437.122500", "141438.612500", "141440.102500", "141441.592500", "141443.082500", "141444.572500", "141446.062500", "141447.552500", "141449.042500", "141450.532500", "141452.022500", "141453.512500", "141455.002500", "141456.492500", "141457.982500", "141459.472500", "141500.962500", "141502.452500", "141503.942500", "141505.432500", "141506.922500", "141508.412500", "141509.902500", "141511.392500", "141512.882500", "141514.372500", "141515.862500", "141517.352500", "141518.842500", "141520.332500", "141521.822500", "141523.312500", "141524.802500", "141526.292500", "141527.782500", "141529.272500", "141530.762500", "141532.252500", "141533.742500", "141535.232500", "141536.722500", "141538.212500", "141539.702500", "141541.192500", "141542.682500", "141544.172500", "141545.662500", "141547.152500", "141548.642500", "141550.132500", "141551.622500", "141553.112500", "141554.602500", "141556.092500", "141557.582500", "141559.072500", "141600.562500", "141602.052500", "141603.542500", "141605.032500", "141606.522500", "141608.012500", "141609.502500", "141610.992500", "141612.482500", "141613.972500", "141615.462500", "141616.952500", "141618.442500", "141619.932500", "141621.422500", "141622.912500", "141624.402500", "141625.892500", "141627.382500", "141628.872500", "141630.362500", "141631.852500", "141633.342500", "141634.832500", "141636.322500", "141637.812500", "141639.302500", "141640.792500", "141642.282500", "141643.772500", "141645.262500", "141646.752500", "141648.242500", "141649.732500", "141651.222500", "141652.712500", "141654.202500", "141655.692500", "141657.182500", "141658.672500", "141700.162500", "141701.652500", "141703.142500", "141704.632500", "141706.122500", "141707.612500", "141709.102500", "141710.592500", "141712.082500"],
      "ContentTime": ["141319.894000", "141319.898000", "141319.919000", "141319.933000", "141319.956000", "141319.960000", "141319.974000", "141319.977000", "141319.981000", "141319.984000", "141319.988000", "141339.856000", "141339.871000", "141339.874000", "141339.877000", "141339.881000", "141339.884000", "141339.887000", "141339.891000", "141339.898000", "141339.902000", "141339.913000", "141339.917000", "141339.920000", "141339.924000", "141339.927000", "141339.930000", "141339.934000", "141339.937000", "141339.941000", "141339.944000", "141339.948000", "141359.857000", "141359.861000", "141359.864000", "141359.868000", "141359.871000", "141359.875000", "141359.878000", "141359.882000", "141359.885000", "141359.888000", "141359.892000", "141359.895000", "141359.899000", "141359.902000", "141359.906000", "141359.909000", "141359.913000", "141359.916000", "141359.920000", "141359.923000", "141419.857000", "141419.861000", "141419.864000", "141419.868000", "141419.871000", "141419.875000", "141419.878000", "141419.882000", "141419.885000", "141419.888000", "141419.892000", "141419.895000", "141419.899000", "141419.902000", "141419.906000", "141419.909000", "141419.912000", "141419.916000", "141419.919000", "141419.922000", "141439.857000", "141439.861000", "141439.870000", "141439.874000", "141439.877000", "141439.887000", "141439.891000", "141439.894000", "141439.898000", "141439.901000", "141439.905000", "141439.908000", "141439.912000", "141439.915000", "141439.919000", "141439.922000", "141439.925000", "141439.929000", "141439.932000", "141439.936000", "141519.857000", "141519.861000", "141519.869000", "141519.872000", "141519.876000", "141519.879000", "141519.883000", "141519.886000", "141519.889000", "141519.893000", "141519.896000", "141519.900000", "141519.903000", "141519.907000", "141519.910000", "141519.914000", "141519.917000", "141519.921000", "141519.924000", "141519.927000", "141519.931000", "141519.934000", "141519.938000", "141519.941000", "141519.945000", "141519.948000", "141519.951000", "141519.955000", "141519.959000", "141519.962000", "141519.965000", "141519.969000", "141519.972000", "141559.856000", "141559.860000", "141559.863000", "141559.867000", "141559.870000", "141559.874000", "141559.877000", "141559.880000", "141559.884000", "141559.887000", "141559.891000", "141559.894000", "141559.897000", "141559.901000", "141559.904000", "141559.908000", "141559.911000", "141559.914000", "141559.918000", "141559.922000", "141559.925000", "141559.929000", "141559.932000", "141559.936000", "141559.939000", "141559.943000", "141559.947000", "141639.857000", "141639.861000", "141639.865000", "141639.868000", "141639.872000", "141639.876000", "141639.879000", "141639.883000", "141639.886000", "141639.890000", "141639.902000", "141639.905000", "141639.908000", "141639.912000", "141639.915000", "141639.919000", "141639.922000", "141639.925000", "141639.929000", "141639.932000", "141639.936000", "141639.939000", "141639.943000", "141639.946000", "141639.949000", "141639.953000", "141714.335000", "141714.339000", "141714.342000", "141714.346000", "141714.349000", "141714.353000", "141714.356000", "141714.360000", "141714.363000", "141714.367000", "141714.370000", "141714.374000", "141714.378000", "141714.381000", "141714.385000", "141714.388000", "141714.392000", "141714.395000", "141714.399000", "141714.402000", "141714.406000", "141714.409000", "141714.412000", "141714.416000"],
      "InstanceCreationTime": ["141319.894000", "141319.898000", "141319.919000", "141319.933000", "141319.956000", "141319.960000", "141319.974000", "141319.977000", "141319.981000", "141319.984000", "141319.988000", "141339.856000", "141339.871000", "141339.874000", "141339.877000", "141339.881000", "141339.884000", "141339.887000", "141339.891000", "141339.898000", "141339.902000", "141339.913000", "141339.917000", "141339.920000", "141339.924000", "141339.927000", "141339.930000", "141339.934000", "141339.937000", "141339.941000", "141339.944000", "141339.948000", "141359.857000", "141359.861000", "141359.864000", "141359.868000", "141359.871000", "141359.875000", "141359.878000", "141359.882000", "141359.885000", "141359.888000", "141359.892000", "141359.895000", "141359.899000", "141359.902000", "141359.906000", "141359.909000", "141359.913000", "141359.916000", "141359.920000", "141359.923000", "141419.857000", "141419.861000", "141419.864000", "141419.868000", "141419.871000", "141419.875000", "141419.878000", "141419.882000", "141419.885000", "141419.888000", "141419.892000", "141419.895000", "141419.899000", "141419.902000", "141419.906000", "141419.909000", "141419.912000", "141419.916000", "141419.919000", "141419.922000", "141439.857000", "141439.861000", "141439.870000", "141439.874000", "141439.877000", "141439.887000", "141439.891000", "141439.894000", "141439.898000", "141439.901000", "141439.905000", "141439.908000", "141439.912000", "141439.915000", "141439.919000", "141439.922000", "141439.925000", "141439.929000", "141439.932000", "141439.936000", "141519.857000", "141519.861000", "141519.869000", "141519.872000", "141519.876000", "141519.879000", "141519.883000", "141519.886000", "141519.889000", "141519.893000", "141519.896000", "141519.900000", "141519.903000", "141519.907000", "141519.910000", "141519.914000", "141519.917000", "141519.921000", "141519.924000", "141519.927000", "141519.931000", "141519.934000", "141519.938000", "141519.941000", "141519.945000", "141519.948000", "141519.951000", "141519.955000", "141519.959000", "141519.962000", "141519.965000", "141519.969000", "141519.972000", "141559.856000", "141559.860000", "141559.863000", "141559.867000", "141559.870000", "141559.874000", "141559.877000", "141559.880000", "141559.884000", "141559.887000", "141559.891000", "141559.894000", "141559.897000", "141559.901000", "141559.904000", "141559.908000", "141559.911000", "141559.914000", "141559.918000", "141559.922000", "141559.925000", "141559.929000", "141559.932000", "141559.936000", "141559.939000", "141559.943000", "141559.947000", "141639.857000", "141639.861000", "141639.865000", "141639.868000", "141639.872000", "141639.876000", "141639.879000", "141639.883000", "141639.886000", "141639.890000", "141639.902000", "141639.905000", "141639.908000", "141639.912000", "141639.915000", "141639.919000", "141639.922000", "141639.925000", "141639.929000", "141639.932000", "141639.936000", "141639.939000", "141639.943000", "141639.946000", "141639.949000", "141639.953000", "141714.335000", "141714.339000", "141714.342000", "141714.346000", "141714.349000", "141714.353000", "141714.356000", "141714.360000", "141714.363000", "141714.367000", "141714.370000", "141714.374000", "141714.378000", "141714.381000", "141714.385000", "141714.388000", "141714.392000", "141714.395000", "141714.399000", "141714.402000", "141714.406000", "141714.409000", "141714.412000", "141714.416000"],
      "InstanceNumber": [1, 2, 3, 4, 5, 6, 7, 8, 9, 10, 11, 12, 13, 14, 15, 16, 17, 18, 19, 20, 21, 22, 23, 24, 25, 26, 27, 28, 29, 30, 31, 32, 33, 34, 35, 36, 37, 38, 39, 40, 41, 42, 43, 44, 45, 46, 47, 48, 49, 50, 51, 52, 53, 54, 55, 56, 57, 58, 59, 60, 61, 62, 63, 64, 65, 66, 67, 68, 69, 70, 71, 72, 73, 74, 75, 76, 77, 78, 79, 80, 81, 82, 83, 84, 85, 86, 87, 88, 89, 90, 91, 92, 93, 94, 95, 96, 97, 98, 99, 100, 101, 102, 103, 104, 105, 106, 107, 108, 109, 110, 111, 112, 113, 114, 115, 116, 117, 118, 119, 120, 121, 122, 123, 124, 125, 126, 127, 128, 129, 130, 131, 132, 133, 134, 135, 136, 137, 138, 139, 140, 141, 142, 143, 144, 145, 146, 147, 148, 149, 150, 151, 152, 153, 154, 155, 156, 157, 158, 159, 160, 161, 162, 163, 164, 165, 166, 167, 168, 169, 170, 171, 172, 173, 174, 175, 176, 177, 178, 179, 180, 181, 182, 183, 184, 185, 186, 187, 188, 189, 190, 191, 192, 193, 194, 195, 196, 197, 198, 199, 200, 201, 202],
      "LargestImagePixelValue": [41101, 39752, 38984, 39006, 38939, 38704, 38680, 38705, 38836, 38807, 38617, 38811, 38473, 38776, 38243, 38290, 38253, 38297, 38469, 38101, 38243, 38214, 38414, 38216, 38125, 38243, 38282, 38486, 37929, 38417, 38426, 38741, 38812, 38780, 38122, 38435, 38674, 38171, 38361, 38160, 38254, 38212, 38703, 38473, 38291, 38459, 38436, 37871, 38074, 38085, 38595, 38752, 37905, 38558, 37946, 38311, 37959, 38445, 38117, 38409, 38447, 38329, 38617, 38238, 37954, 38335, 38238, 38285, 38609, 38002, 38449, 38026, 38169, 38472, 38061, 38622, 38421, 38077, 38115, 38212, 38248, 38591, 38267, 38562, 38465, 38138, 38185, 38441, 38124, 38167, 38558, 38040, 38473, 38260, 38484, 38212, 38283, 38734, 38327, 38643, 38089, 38264, 38416, 38026, 38324, 38256, 38224, 38474, 37896, 38388, 38442, 38337, 38306, 38121, 38211, 38523, 38161, 38117, 38106, 38532, 38420, 38385, 38098, 38267, 38430, 38689, 38405, 38469, 38074, 38389, 38530, 37766, 38092, 38035, 38647, 38160, 38377, 38394, 38667, 38348, 38494, 38167, 38346, 38619, 38149, 38109, 38027, 37990, 38066, 38024, 38165, 38592, 38230, 38244, 38424, 38465, 38228, 38640, 38203, 38029, 38224, 38511, 38370, 39052, 38241, 38845, 38319, 38379, 38721, 37946, 38331, 37802, 38115, 38399, 37977, 38468, 38162, 38551, 38197, 38071, 38761, 38280, 38471, 38675, 38287, 38282, 38507, 38596, 38090, 38410, 38208, 38450, 38131, 38540, 38857, 38336, 37940, 38454, 38391, 38706, 38690, 38363],
      "WindowCenter": [10179.0, 10123.0, 10093.0, 10075.0, 10054.0, 10044.0, 10044.0, 10045.0, 10046.0, 10044.0, 10051.0, 10068.0, 10080.0, 10096.0, 10092.0, 10091.0, 10091.0, 10098.0, 10108.0, 10116.0, 10126.0, 10120.0, 10117.0, 10110.0, 10111.0, 10119.0, 10127.0, 10119.0, 10111.0, 10109.0, 10110.0, 10133.0, 10143.0, 10153.0, 10138.0, 10129.0, 10128.0, 10129.0, 10129.0, 10120.0, 10110.0, 10110.0, 10130.0, 10143.0, 10170.0, 10183.0, 10178.0, 10144.0, 10125.0, 10104.0, 10125.0, 10152.0, 10160.0, 10156.0, 10133.0, 10113.0, 10094.0, 10084.0, 10084.0, 10089.0, 10093.0, 10107.0, 10118.0, 10112.0, 10111.0, 10109.0, 10097.0, 10101.0, 10117.0, 10139.0, 10147.0, 10141.0, 10122.0, 10106.0, 10087.0, 10099.0, 10111.0, 10145.0, 10141.0, 10133.0, 10111.0, 10100.0, 10083.0, 10091.0, 10098.0, 10103.0, 10110.0, 10120.0, 10118.0, 10113.0, 10109.0, 10104.0, 10104.0, 10109.0, 10109.0, 10104.0, 10111.0, 10126.0, 10128.0, 10113.0, 10106.0, 10095.0, 10110.0, 10114.0, 10127.0, 10119.0, 10106.0, 10094.0, 10079.0, 10082.0, 10098.0, 10101.0, 10110.0, 10110.0, 10118.0, 10121.0, 10114.0, 10104.0, 10103.0, 10110.0, 10120.0, 10127.0, 10131.0, 10130.0, 10121.0, 10109.0, 10094.0, 10100.0, 10109.0, 10121.0, 10122.0, 10108.0, 10098.0, 10102.0, 10108.0, 10114.0, 10119.0, 10129.0, 10144.0, 10145.0, 10122.0, 10096.0, 10083.0, 10082.0, 10085.0, 10095.0, 10094.0, 10087.0, 10085.0, 10085.0, 10093.0, 10111.0, 10114.0, 10112.0, 10105.0, 10119.0, 10125.0, 10130.0, 10111.0, 10104.0, 10120.0, 10146.0, 10150.0, 10140.0, 10114.0, 10094.0, 10080.0, 10079.0, 10093.0, 10101.0, 10111.0, 10106.0, 10103.0, 10096.0, 10094.0, 10088.0, 10094.0, 10093.0, 10096.0, 10103.0, 10125.0, 10112.0, 10102.0, 10083.0, 10068.0, 10082.0, 10091.0, 10099.0, 10086.0, 10077.0, 10075.0, 10075.0, 10078.0, 10091.0, 10114.0, 10111.0, 10097.0, 10077.0, 10066.0, 10072.0, 10092.0, 10108.0],
      "WindowWidth": [21690.0, 21540.0, 21455.0, 21406.0, 21355.0, 21329.0, 21329.0, 21332.0, 21333.0, 21329.0, 21343.0, 21384.0, 21416.0, 21449.0, 21442.0, 21438.0, 21437.0, 21453.0, 21480.0, 21498.0, 21520.0, 21507.0, 21498.0, 21483.0, 21488.0, 21506.0, 21525.0, 21506.0, 21488.0, 21480.0, 21483.0, 21535.0, 21559.0, 21582.0, 21548.0, 21527.0, 21523.0, 21527.0, 21526.0, 21505.0, 21481.0, 21483.0, 21527.0, 21559.0, 21624.0, 21656.0, 21644.0, 21565.0, 21517.0, 21470.0, 21517.0, 21579.0, 21602.0, 21589.0, 21537.0, 21488.0, 21445.0, 21423.0, 21422.0, 21429.0, 21444.0, 21472.0, 21498.0, 21487.0, 21484.0, 21477.0, 21455.0, 21461.0, 21498.0, 21551.0, 21566.0, 21554.0, 21509.0, 21471.0, 21429.0, 21452.0, 21486.0, 21563.0, 21557.0, 21536.0, 21481.0, 21453.0, 21418.0, 21436.0, 21452.0, 21469.0, 21482.0, 21506.0, 21501.0, 21492.0, 21480.0, 21469.0, 21469.0, 21479.0, 21477.0, 21470.0, 21484.0, 21515.0, 21522.0, 21489.0, 21472.0, 21447.0, 21479.0, 21491.0, 21515.0, 21498.0, 21471.0, 21443.0, 21414.0, 21417.0, 21454.0, 21463.0, 21483.0, 21484.0, 21501.0, 21508.0, 21492.0, 21469.0, 21468.0, 21483.0, 21505.0, 21520.0, 21531.0, 21526.0, 21507.0, 21474.0, 21443.0, 21456.0, 21478.0, 21508.0, 21510.0, 21479.0, 21457.0, 21461.0, 21474.0, 21495.0, 21504.0, 21526.0, 21559.0, 21559.0, 21506.0, 21448.0, 21416.0, 21413.0, 21424.0, 21448.0, 21442.0, 21428.0, 21423.0, 21425.0, 21443.0, 21484.0, 21493.0, 21486.0, 21471.0, 21502.0, 21521.0, 21528.0, 21488.0, 21468.0, 21506.0, 21565.0, 21574.0, 21548.0, 21486.0, 21440.0, 21411.0, 21411.0, 21442.0, 21459.0, 21484.0, 21475.0, 21467.0, 21449.0, 21444.0, 21433.0, 21447.0, 21443.0, 21452.0, 21465.0, 21511.0, 21482.0, 21455.0, 21413.0, 21383.0, 21412.0, 21435.0, 21451.0, 21424.0, 21403.0, 21397.0, 21397.0, 21408.0, 21435.0, 21487.0, 21485.0, 21453.0, 21403.0, 21378.0, 21392.0, 21440.0, 21475.0]
    },
    "slices": {}
  }
}