{
  "AcquisitionMatrixPE": 104,
  "AcquisitionNumber": 1,
  "AcquisitionTime": "14:12:12.592500",
  "BandwidthPerPixelPhaseEncode": 17.17,
  "BaseResolution": 104,
  "BodyPartExamined": "BRAIN",
  "CoilString": "HC1-7;NC1_2",
  "ConsistencyInfo": "N4_VE11C_LATEST_20160120",
  "ConversionSoftware": "dcm2niix",
  "ConversionSoftwareVersion": "v1.0.20190902",
  "DerivedVendorReportedEchoSpacing": 0.000560011,
  "DeviceSerialNumber": "167006",
  "DwellTime": 2.1e-06,
  "EchoTime": 0.037,
  "EchoTrainLength": 104,
  "EffectiveEchoSpacing": 0.000560011,
  "FlipAngle": 52,
  "ImageComments": "Unaliased_MB4_PE3_LB",
  "ImageOrientationPatientDICOM": [0.999342, 0.0116536, 0.0343403, -0.00191863, 0.962623, -0.270839],
  "ImageType": [
    "ORIGINAL",
    "PRIMARY",
    "P",
    "MB",
    "ND",
    "MOSAIC"
],
  "ImagingFrequency": 123.259,
  "InPlanePhaseEncodingDirectionDICOM": "COL",
  "InstitutionAddress": "Chemin_Queen-Mary_4565_Montreal_District_CA_H3W_1W5",
  "InstitutionName": "IUGM",
  "InstitutionalDepartmentName": "Department",
  "MRAcquisitionType": "2D",
  "MagneticFieldStrength": 3,
  "Manufacturer": "Siemens",
  "ManufacturersModelName": "Prisma_fit",
  "Modality": "MR",
  "MultibandAccelerationFactor": 4,
  "PartialFourier": 1,
  "PatientPosition": "HFS",
  "PercentPhaseFOV": 100,
  "PhaseEncodingDirection": "j",
  "PhaseEncodingSteps": 104,
  "PhaseResolution": 1,
  "PixelBandwidth": 2290,
  "ProcedureStepDescription": "localizers_retinotopy",
  "ProtocolName": "func_task-rings",
  "PulseSequenceDetails": "%CustomerSeq%_cmrr_mbep2d_bold",
  "ReceiveCoilActiveElements": "HC1-7;NC1,2",
  "ReceiveCoilName": "HeadNeck_64",
  "ReconMatrixPE": 104,
  "RepetitionTime": 1.49,
  "SAR": 0.0678108,
  "ScanOptions": "FS",
  "ScanningSequence": "EP",
  "SequenceName": "epfid2d1_104",
  "SequenceVariant": "SK_SS",
  "SeriesDescription": "func_task-rings",
  "SeriesNumber": 14,
  "ShimSetting": [636, -7209, -8768, 690, 61, 31, 64, 8],
  "SliceThickness": 2,
  "SliceTiming": [0, 0.785, 0.0975, 0.8825, 0.1975, 0.98, 0.295, 1.0775, 0.3925, 1.1775, 0.49, 1.275, 0.5875, 1.3725, 0.6875, 0, 0.785, 0.0975, 0.8825, 0.1975, 0.98, 0.295, 1.0775, 0.3925, 1.1775, 0.49, 1.275, 0.5875, 1.3725, 0.6875, 0, 0.785, 0.0975, 0.8825, 0.1975, 0.98, 0.295, 1.0775, 0.3925, 1.1775, 0.49, 1.275, 0.5875, 1.3725, 0.6875, 0, 0.785, 0.0975, 0.8825, 0.1975, 0.98, 0.295, 1.0775, 0.3925, 1.1775, 0.49, 1.275, 0.5875, 1.3725, 0.6875],
  "SoftwareVersions": "syngo_MR_E11",
  "SpacingBetweenSlices": 2,
  "StationName": "MRC35049",
  "TaskName": "rings",
  "TotalReadoutTime": 0.0576811,
  "TxRefAmp": 271.307,
  "WipMemBlock": "ecadbd86-e3bb-4ca4-b41e-817aa313e7a1||Sequence: R016 ve11c/master r/e634e98; Dec 19 2017 11:00:25 by eja",
  "dcmmeta_affine": [
    [-1.9986845254898071, -0.003837267402559519, 0.0724259465932846, 107.68640899658203],
    [-0.023307284340262413, 1.9252454042434692, -0.5411904454231262, -72.71220397949219],
    [0.06868050992488861, 0.5416784882545471, 1.9240237474441528, -59.25651931762695],
    [0.0, 0.0, 0.0, 1.0]
],
  "dcmmeta_reorient_transform": [
    [0.0, -1.0, 0.0, 103.0],
    [1.0, 0.0, 0.0, 0.0],
    [0.0, 0.0, 1.0, 0.0],
    [0.0, 0.0, 0.0, 1.0]
],
  "dcmmeta_shape": [104, 104, 60, 202],
  "dcmmeta_slice_dim": 2,
  "dcmmeta_version": 0.6,
  "global": {
    "const": {
      "AcquisitionMatrix": [104, 0, 0, 104],
      "AngioFlag": "N",
      "BitsAllocated": 16,
      "BitsStored": 16,
      "BodyPartExamined": "BRAIN",
      "Columns": 832,
      "EchoNumbers": 1,
      "EchoTime": 37.0,
      "EchoTrainLength": 104,
      "FlipAngle": 52.0,
      "HighBit": 15,
      "ImageOrientationPatient": [0.99934225341909, 0.01165364259783, 0.03434025546588, -0.0019186336945, 0.96262267848523, -0.270839246991],
      "ImagePositionPatient": [-833.41556344441, -834.86122769335, 168.7076325981],
      "ImageType": [
        "ORIGINAL",
        "PRIMARY",
        "P",
        "MB",
        "ND",
        "MOSAIC"
],
      "ImagedNucleus": "1H",
      "ImagingFrequency": 123.258941,
      "InPlanePhaseEncodingDirection": "COL",
      "LargestImagePixelValue": 4095,
      "MRAcquisitionType": "2D",
      "MagneticFieldStrength": 3.0,
      "Manufacturer": "SIEMENS",
      "ManufacturerModelName": "Prisma_fit",
      "Modality": "MR",
      "NumberOfAverages": 1.0,
      "NumberOfPhaseEncodingSteps": 104,
      "PercentPhaseFieldOfView": 100.0,
      "PercentSampling": 100.0,
      "PerformedProcedureStepStartTime": "140205.026000",
      "PhotometricInterpretation": "MONOCHROME2",
      "PixelBandwidth": 2290.0,
      "PixelRepresentation": 0,
      "PixelSpacing": [2.0, 2.0],
      "ProtocolName": "func_task-rings",
      "RepetitionTime": 1490.0,
      "RescaleIntercept": -4096.0,
      "RescaleSlope": 2.0,
      "RescaleType": "US",
      "Rows": 832,
      "SAR": 0.06781076197718,
      "SamplesPerPixel": 1,
      "ScanOptions": "FS",
      "ScanningSequence": "EP",
      "SequenceName": "epfid2d1_104",
      "SequenceVariant": [
        "SK",
        "SS"
],
      "SeriesDescription": "func_task-rings",
      "SeriesNumber": 14,
      "SeriesTime": "141320.022000",
      "SliceLocation": -33.430254138917,
      "SliceThickness": 2.0,
      "SmallestImagePixelValue": 0,
      "SoftwareVersions": "syngo MR E11",
      "SpacingBetweenSlices": 1.9999999626876,
      "SpecificCharacterSet": "ISO_IR 100",
      "StudyID": "1",
      "StudyTime": "140204.949000",
      "TransmitCoilName": "Body",
      "VariableFlipAngleFlag": "N",
      "WindowCenterWidthExplanation": "Algo1",
      "dBdt": 0.0},
    "slices": {}
  },
  "time": {
    "samples": {
      "AcquisitionNumber": [1, 2, 3, 4, 5, 6, 7, 8, 9, 10, 11, 12, 13, 14, 15, 16, 17, 18, 19, 20, 21, 22, 23, 24, 25, 26, 27, 28, 29, 30, 31, 32, 33, 34, 35, 36, 37, 38, 39, 40, 41, 42, 43, 44, 45, 46, 47, 48, 49, 50, 51, 52, 53, 54, 55, 56, 57, 58, 59, 60, 61, 62, 63, 64, 65, 66, 67, 68, 69, 70, 71, 72, 73, 74, 75, 76, 77, 78, 79, 80, 81, 82, 83, 84, 85, 86, 87, 88, 89, 90, 91, 92, 93, 94, 95, 96, 97, 98, 99, 100, 101, 102, 103, 104, 105, 106, 107, 108, 109, 110, 111, 112, 113, 114, 115, 116, 117, 118, 119, 120, 121, 122, 123, 124, 125, 126, 127, 128, 129, 130, 131, 132, 133, 134, 135, 136, 137, 138, 139, 140, 141, 142, 143, 144, 145, 146, 147, 148, 149, 150, 151, 152, 153, 154, 155, 156, 157, 158, 159, 160, 161, 162, 163, 164, 165, 166, 167, 168, 169, 170, 171, 172, 173, 174, 175, 176, 177, 178, 179, 180, 181, 182, 183, 184, 185, 186, 187, 188, 189, 190, 191, 192, 193, 194, 195, 196, 197, 198, 199, 200, 201, 202],
      "AcquisitionTime": ["141212.592500", "141214.082500", "141215.572500", "141217.062500", "141218.552500", "141220.042500", "141221.532500", "141223.022500", "141224.512500", "141226.002500", "141227.492500", "141228.982500", "141230.472500", "141231.962500", "141233.452500", "141234.942500", "141236.432500", "141237.922500", "141239.412500", "141240.902500", "141242.392500", "141243.882500", "141245.372500", "141246.862500", "141248.352500", "141249.842500", "141251.332500", "141252.822500", "141254.312500", "141255.802500", "141257.292500", "141258.782500", "141300.272500", "141301.762500", "141303.252500", "141304.742500", "141306.232500", "141307.722500", "141309.212500", "141310.702500", "141312.192500", "141313.682500", "141315.172500", "141316.662500", "141318.152500", "141319.642500", "141321.132500", "141322.622500", "141324.112500", "141325.602500", "141327.092500", "141328.582500", "141330.072500", "141331.562500", "141333.052500", "141334.542500", "141336.032500", "141337.522500", "141339.012500", "141340.502500", "141341.992500", "141343.482500", "141344.972500", "141346.462500", "141347.952500", "141349.442500", "141350.932500", "141352.422500", "141353.912500", "141355.402500", "141356.892500", "141358.382500", "141359.872500", "141401.362500", "141402.852500", "141404.342500", "141405.832500", "141407.322500", "141408.812500", "141410.302500", "141411.792500", "141413.282500", "141414.772500", "141416.262500", "141417.752500", "141419.242500", "141420.732500", "141422.222500", "141423.712500", "141425.202500", "141426.692500", "141428.182500", "141429.672500", "141431.162500", "141432.652500", "141434.142500", "141435.632500", "141437.122500", "141438.612500", "141440.102500", "141441.592500", "141443.082500", "141444.572500", "141446.062500", "141447.552500", "141449.042500", "141450.532500", "141452.022500", "141453.512500", "141455.002500", "141456.492500", "141457.982500", "141459.472500", "141500.962500", "141502.452500", "141503.942500", "141505.432500", "141506.922500", "141508.412500", "141509.902500", "141511.392500", "141512.882500", "141514.372500", "141515.862500", "141517.352500", "141518.842500", "141520.332500", "141521.822500", "141523.312500", "141524.802500", "141526.292500", "141527.782500", "141529.272500", "141530.762500", "141532.252500", "141533.742500", "141535.232500", "141536.722500", "141538.212500", "141539.702500", "141541.192500", "141542.682500", "141544.172500", "141545.662500", "141547.152500", "141548.642500", "141550.132500", "141551.622500", "141553.112500", "141554.602500", "141556.092500", "141557.582500", "141559.072500", "141600.562500", "141602.052500", "141603.542500", "141605.032500", "141606.522500", "141608.012500", "141609.502500", "141610.992500", "141612.482500", "141613.972500", "141615.462500", "141616.952500", "141618.442500", "141619.932500", "141621.422500", "141622.912500", "141624.402500", "141625.892500", "141627.382500", "141628.872500", "141630.362500", "141631.852500", "141633.342500", "141634.832500", "141636.322500", "141637.812500", "141639.302500", "141640.792500", "141642.282500", "141643.772500", "141645.262500", "141646.752500", "141648.242500", "141649.732500", "141651.222500", "141652.712500", "141654.202500", "141655.692500", "141657.182500", "141658.672500", "141700.162500", "141701.652500", "141703.142500", "141704.632500", "141706.122500", "141707.612500", "141709.102500", "141710.592500", "141712.082500"],
      "ContentTime": ["141320.024000", "141320.027000", "141320.030000", "141320.032000", "141320.035000", "141320.037000", "141320.040000", "141320.043000", "141320.045000", "141320.048000", "141320.050000", "141339.995000", "141339.998000", "141340.002000", "141340.004000", "141340.007000", "141340.009000", "141340.012000", "141340.018000", "141340.020000", "141340.023000", "141340.025000", "141340.028000", "141340.030000", "141340.033000", "141340.035000", "141340.038000", "141340.041000", "141340.043000", "141340.046000", "141340.048000", "141340.051000", "141359.975000", "141359.978000", "141359.980000", "141359.983000", "141359.986000", "141359.988000", "141359.991000", "141359.993000", "141359.996000", "141400.000000", "141400.003000", "141400.005000", "141400.008000", "141400.012000", "141400.015000", "141400.017000", "141400.020000", "141400.022000", "141400.025000", "141400.037000", "141419.980000", "141419.983000", "141419.985000", "141419.988000", "141419.990000", "141419.993000", "141419.996000", "141419.998000", "141420.002000", "141420.004000", "141420.007000", "141420.010000", "141420.012000", "141420.015000", "141420.018000", "141420.020000", "141420.023000", "141420.025000", "141420.028000", "141420.031000", "141439.979000", "141439.982000", "141439.984000", "141439.987000", "141439.991000", "141439.994000", "141439.997000", "141440.000000", "141440.003000", "141440.005000", "141440.008000", "141440.011000", "141440.013000", "141440.016000", "141440.019000", "141440.021000", "141440.024000", "141440.026000", "141440.029000", "141440.031000", "141520.036000", "141520.038000", "141520.041000", "141520.043000", "141520.046000", "141520.049000", "141520.051000", "141520.054000", "141520.057000", "141520.059000", "141520.062000", "141520.064000", "141520.067000", "141520.070000", "141520.072000", "141520.075000", "141520.077000", "141520.080000", "141520.083000", "141520.090000", "141520.092000", "141520.095000", "141520.098000", "141520.100000", "141520.103000", "141520.106000", "141520.108000", "141520.111000", "141520.113000", "141520.116000", "141520.118000", "141520.121000", "141520.124000", "141600.010000", "141600.013000", "141600.016000", "141600.018000", "141600.021000", "141600.023000", "141600.026000", "141600.028000", "141600.031000", "141600.034000", "141600.036000", "141600.039000", "141600.041000", "141600.044000", "141600.046000", "141600.049000", "141600.052000", "141600.054000", "141600.057000", "141600.059000", "141600.062000", "141600.065000", "141600.067000", "141600.070000", "141600.072000", "141600.075000", "141600.077000", "141640.001000", "141640.004000", "141640.007000", "141640.010000", "141640.012000", "141640.015000", "141640.018000", "141640.020000", "141640.023000", "141640.025000", "141640.028000", "141640.031000", "141640.033000", "141640.036000", "141640.038000", "141640.041000", "141640.044000", "141640.046000", "141640.049000", "141640.051000", "141640.054000", "141640.057000", "141640.059000", "141640.062000", "141640.064000", "141640.067000", "141714.476000", "141714.479000", "141714.481000", "141714.484000", "141714.487000", "141714.490000", "141714.493000", "141714.495000", "141714.498000", "141714.501000", "141714.504000", "141714.507000", "141714.509000", "141714.512000", "141714.515000", "141714.518000", "141714.520000", "141714.523000", "141714.526000", "141714.529000", "141714.531000", "141714.534000", "141714.537000", "141714.540000"],
      "InstanceCreationTime": ["141320.024000", "141320.027000", "141320.030000", "141320.032000", "141320.035000", "141320.037000", "141320.040000", "141320.043000", "141320.045000", "141320.048000", "141320.050000", "141339.995000", "141339.998000", "141340.002000", "141340.004000", "141340.007000", "141340.009000", "141340.012000", "141340.018000", "141340.020000", "141340.023000", "141340.025000", "141340.028000", "141340.030000", "141340.033000", "141340.035000", "141340.038000", "141340.041000", "141340.043000", "141340.046000", "141340.048000", "141340.051000", "141359.975000", "141359.978000", "141359.980000", "141359.983000", "141359.986000", "141359.988000", "141359.991000", "141359.993000", "141359.996000", "141400.000000", "141400.003000", "141400.005000", "141400.008000", "141400.012000", "141400.015000", "141400.017000", "141400.020000", "141400.022000", "141400.025000", "141400.037000", "141419.980000", "141419.983000", "141419.985000", "141419.988000", "141419.990000", "141419.993000", "141419.996000", "141419.998000", "141420.002000", "141420.004000", "141420.007000", "141420.010000", "141420.012000", "141420.015000", "141420.018000", "141420.020000", "141420.023000", "141420.025000", "141420.028000", "141420.031000", "141439.979000", "141439.982000", "141439.984000", "141439.987000", "141439.991000", "141439.994000", "141439.997000", "141440.000000", "141440.003000", "141440.005000", "141440.008000", "141440.011000", "141440.013000", "141440.016000", "141440.019000", "141440.021000", "141440.024000", "141440.026000", "141440.029000", "141440.031000", "141520.036000", "141520.038000", "141520.041000", "141520.043000", "141520.046000", "141520.049000", "141520.051000", "141520.054000", "141520.057000", "141520.059000", "141520.062000", "141520.064000", "141520.067000", "141520.070000", "141520.072000", "141520.075000", "141520.077000", "141520.080000", "141520.083000", "141520.090000", "141520.092000", "141520.095000", "141520.098000", "141520.100000", "141520.103000", "141520.106000", "141520.108000", "141520.111000", "141520.113000", "141520.116000", "141520.118000", "141520.121000", "141520.124000", "141600.010000", "141600.013000", "141600.016000", "141600.018000", "141600.021000", "141600.023000", "141600.026000", "141600.028000", "141600.031000", "141600.034000", "141600.036000", "141600.039000", "141600.041000", "141600.044000", "141600.046000", "141600.049000", "141600.052000", "141600.054000", "141600.057000", "141600.059000", "141600.062000", "141600.065000", "141600.067000", "141600.070000", "141600.072000", "141600.075000", "141600.077000", "141640.001000", "141640.004000", "141640.007000", "141640.010000", "141640.012000", "141640.015000", "141640.018000", "141640.020000", "141640.023000", "141640.025000", "141640.028000", "141640.031000", "141640.033000", "141640.036000", "141640.038000", "141640.041000", "141640.044000", "141640.046000", "141640.049000", "141640.051000", "141640.054000", "141640.057000", "141640.059000", "141640.062000", "141640.064000", "141640.067000", "141714.476000", "141714.479000", "141714.481000", "141714.484000", "141714.487000", "141714.490000", "141714.493000", "141714.495000", "141714.498000", "141714.501000", "141714.504000", "141714.507000", "141714.509000", "141714.512000", "141714.515000", "141714.518000", "141714.520000", "141714.523000", "141714.526000", "141714.529000", "141714.531000", "141714.534000", "141714.537000", "141714.540000"],
      "InstanceNumber": [1, 2, 3, 4, 5, 6, 7, 8, 9, 10, 11, 12, 13, 14, 15, 16, 17, 18, 19, 20, 21, 22, 23, 24, 25, 26, 27, 28, 29, 30, 31, 32, 33, 34, 35, 36, 37, 38, 39, 40, 41, 42, 43, 44, 45, 46, 47, 48, 49, 50, 51, 52, 53, 54, 55, 56, 57, 58, 59, 60, 61, 62, 63, 64, 65, 66, 67, 68, 69, 70, 71, 72, 73, 74, 75, 76, 77, 78, 79, 80, 81, 82, 83, 84, 85, 86, 87, 88, 89, 90, 91, 92, 93, 94, 95, 96, 97, 98, 99, 100, 101, 102, 103, 104, 105, 106, 107, 108, 109, 110, 111, 112, 113, 114, 115, 116, 117, 118, 119, 120, 121, 122, 123, 124, 125, 126, 127, 128, 129, 130, 131, 132, 133, 134, 135, 136, 137, 138, 139, 140, 141, 142, 143, 144, 145, 146, 147, 148, 149, 150, 151, 152, 153, 154, 155, 156, 157, 158, 159, 160, 161, 162, 163, 164, 165, 166, 167, 168, 169, 170, 171, 172, 173, 174, 175, 176, 177, 178, 179, 180, 181, 182, 183, 184, 185, 186, 187, 188, 189, 190, 191, 192, 193, 194, 195, 196, 197, 198, 199, 200, 201, 202],
      "WindowCenter": [4776.0, 4774.0, 4774.0, 4770.0, 4770.0, 4772.0, 4776.0, 4774.0, 4774.0, 4772.0, 4774.0, 4776.0, 4774.0, 4776.0, 4774.0, 4776.0, 4772.0, 4770.0, 4774.0, 4748.0, 4774.0, 4774.0, 4772.0, 4774.0, 4776.0, 4774.0, 4774.0, 4774.0, 4748.0, 4778.0, 4770.0, 4770.0, 4770.0, 4770.0, 4774.0, 4772.0, 4776.0, 4770.0, 4774.0, 4772.0, 4772.0, 4774.0, 4772.0, 4770.0, 4774.0, 4772.0, 4776.0, 4776.0, 4772.0, 4774.0, 4772.0, 4772.0, 4776.0, 4772.0, 4774.0, 4776.0, 4776.0, 4772.0, 4774.0, 4776.0, 4774.0, 4774.0, 4774.0, 4772.0, 4774.0, 4770.0, 4778.0, 4772.0, 4776.0, 4772.0, 4772.0, 4772.0, 4774.0, 4772.0, 4772.0, 4776.0, 4772.0, 4774.0, 4770.0, 4776.0, 4776.0, 4772.0, 4772.0, 4770.0, 4776.0, 4774.0, 4770.0, 4774.0, 4772.0, 4772.0, 4774.0, 4770.0, 4774.0, 4776.0, 4772.0, 4774.0, 4746.0, 4772.0, 4774.0, 4772.0, 4772.0, 4776.0, 4772.0, 4774.0, 4776.0, 4774.0, 4776.0, 4774.0, 4772.0, 4772.0, 4774.0, 4772.0, 4776.0, 4776.0, 4772.0, 4772.0, 4772.0, 4770.0, 4774.0, 4772.0, 4772.0, 4774.0, 4772.0, 4776.0, 4776.0, 4772.0, 4770.0, 4774.0, 4774.0, 4774.0, 4776.0, 4772.0, 4774.0, 4776.0, 4776.0, 4750.0, 4774.0, 4772.0, 4774.0, 4778.0, 4774.0, 4778.0, 4776.0, 4774.0, 4772.0, 4776.0, 4750.0, 4772.0, 4772.0, 4772.0, 4774.0, 4748.0, 4776.0, 4776.0, 4776.0, 4780.0, 4774.0, 4776.0, 4770.0, 4774.0, 4772.0, 4772.0, 4774.0, 4774.0, 4776.0, 4772.0, 4774.0, 4774.0, 4772.0, 4772.0, 4776.0, 4772.0, 4774.0, 4772.0, 4772.0, 4776.0, 4772.0, 4776.0, 4772.0, 4776.0, 4772.0, 4772.0, 4772.0, 4778.0, 4778.0, 4774.0, 4774.0, 4774.0, 4774.0, 4776.0, 4772.0, 4774.0, 4772.0, 4772.0, 4776.0, 4772.0, 4778.0, 4774.0, 4774.0, 4772.0, 4776.0, 4774.0],
      "WindowWidth": [18572.0, 18570.0, 18568.0, 18566.0, 18570.0, 18570.0, 18570.0, 18568.0, 18568.0, 18570.0, 18568.0, 18570.0, 18564.0, 18572.0, 18572.0, 18572.0, 18568.0, 18566.0, 18572.0, 18532.0, 18568.0, 18570.0, 18570.0, 18570.0, 18570.0, 18570.0, 18566.0, 18570.0, 18534.0, 18574.0, 18568.0, 18566.0, 18566.0, 18568.0, 18572.0, 18568.0, 18578.0, 18566.0, 18568.0, 18572.0, 18570.0, 18568.0, 18566.0, 18566.0, 18570.0, 18566.0, 18570.0, 18570.0, 18570.0, 18574.0, 18564.0, 18564.0, 18570.0, 18568.0, 18570.0, 18570.0, 18570.0, 18566.0, 18570.0, 18572.0, 18570.0, 18570.0, 18568.0, 18564.0, 18570.0, 18564.0, 18576.0, 18566.0, 18572.0, 18568.0, 18568.0, 18566.0, 18570.0, 18566.0, 18570.0, 18568.0, 18568.0, 18562.0, 18564.0, 18574.0, 18572.0, 18566.0, 18572.0, 18568.0, 18572.0, 18566.0, 18568.0, 18568.0, 18566.0, 18568.0, 18574.0, 18564.0, 18570.0, 18572.0, 18568.0, 18572.0, 18534.0, 18570.0, 18570.0, 18564.0, 18570.0, 18568.0, 18566.0, 18566.0, 18566.0, 18568.0, 18570.0, 18568.0, 18566.0, 18570.0, 18570.0, 18570.0, 18566.0, 18574.0, 18566.0, 18566.0, 18564.0, 18562.0, 18566.0, 18566.0, 18572.0, 18566.0, 18568.0, 18570.0, 18566.0, 18566.0, 18566.0, 18568.0, 18568.0, 18566.0, 18574.0, 18564.0, 18564.0, 18570.0, 18566.0, 18538.0, 18568.0, 18560.0, 18574.0, 18570.0, 18568.0, 18574.0, 18568.0, 18570.0, 18566.0, 18566.0, 18536.0, 18566.0, 18566.0, 18566.0, 18566.0, 18534.0, 18572.0, 18568.0, 18564.0, 18574.0, 18568.0, 18572.0, 18570.0, 18570.0, 18570.0, 18566.0, 18570.0, 18570.0, 18572.0, 18570.0, 18568.0, 18566.0, 18566.0, 18568.0, 18568.0, 18566.0, 18572.0, 18568.0, 18568.0, 18570.0, 18568.0, 18572.0, 18566.0, 18568.0, 18564.0, 18566.0, 18566.0, 18572.0, 18572.0, 18566.0, 18568.0, 18570.0, 18566.0, 18574.0, 18566.0, 18566.0, 18564.0, 18568.0, 18568.0, 18568.0, 18572.0, 18566.0, 18566.0, 18566.0, 18566.0, 18568.0]
    },
    "slices": {}
  }
}