{
  "AcquisitionMatrixPE": 104,
  "AcquisitionNumber": 1,
  "AcquisitionTime": "14:05:53.807500",
  "BandwidthPerPixelPhaseEncode": 17.17,
  "BaseResolution": 104,
  "BodyPartExamined": "BRAIN",
  "CoilString": "HC1-7;NC1_2",
  "ConsistencyInfo": "N4_VE11C_LATEST_20160120",
  "ConversionSoftware": "dcm2niix",
  "ConversionSoftwareVersion": "v1.0.20190902",
  "DerivedVendorReportedEchoSpacing": 0.000560011,
  "DeviceSerialNumber": "167006",
  "DwellTime": 2.1e-06,
  "EchoTime": 0.037,
  "EchoTrainLength": 104,
  "EffectiveEchoSpacing": 0.000560011,
  "FlipAngle": 52,
  "ImageComments": "Unaliased_MB4_PE3_LB",
  "ImageOrientationPatientDICOM": [0.999342, 0.0116536, 0.0343403, -0.00191863, 0.962623, -0.270839],
  "ImageType": [
    "ORIGINAL",
    "PRIMARY",
    "M",
    "MB",
    "ND",
    "MOSAIC"
],
  "ImagingFrequency": 123.259,
  "InPlanePhaseEncodingDirectionDICOM": "COL",
  "InstitutionAddress": "Chemin_Queen-Mary_4565_Montreal_District_CA_H3W_1W5",
  "InstitutionName": "IUGM",
  "InstitutionalDepartmentName": "Department",
  "MRAcquisitionType": "2D",
  "MagneticFieldStrength": 3,
  "Manufacturer": "Siemens",
  "ManufacturersModelName": "Prisma_fit",
  "Modality": "MR",
  "MultibandAccelerationFactor": 4,
  "PartialFourier": 1,
  "PatientPosition": "HFS",
  "PercentPhaseFOV": 100,
  "PhaseEncodingDirection": "j",
  "PhaseEncodingSteps": 104,
  "PhaseResolution": 1,
  "PixelBandwidth": 2290,
  "ProcedureStepDescription": "localizers_retinotopy",
  "ProtocolName": "func_task-wedges",
  "PulseSequenceDetails": "%CustomerSeq%_cmrr_mbep2d_bold",
  "ReceiveCoilActiveElements": "HC1-7;NC1,2",
  "ReceiveCoilName": "HeadNeck_64",
  "ReconMatrixPE": 104,
  "RepetitionTime": 1.49,
  "SAR": 0.0678108,
  "ScanOptions": "FS",
  "ScanningSequence": "EP",
  "SequenceName": "epfid2d1_104",
  "SequenceVariant": "SK_SS",
  "SeriesDescription": "func_task-wedges",
  "SeriesNumber": 10,
  "ShimSetting": [636, -7209, -8768, 690, 61, 31, 64, 8],
  "SliceThickness": 2,
  "SliceTiming": [0, 0.7825, 0.0975, 0.8825, 0.195, 0.98, 0.2925, 1.0775, 0.3925, 1.175, 0.49, 1.2725, 0.5875, 1.3725, 0.685, 0, 0.7825, 0.0975, 0.8825, 0.195, 0.98, 0.2925, 1.0775, 0.3925, 1.175, 0.49, 1.2725, 0.5875, 1.3725, 0.685, 0, 0.7825, 0.0975, 0.8825, 0.195, 0.98, 0.2925, 1.0775, 0.3925, 1.175, 0.49, 1.2725, 0.5875, 1.3725, 0.685, 0, 0.7825, 0.0975, 0.8825, 0.195, 0.98, 0.2925, 1.0775, 0.3925, 1.175, 0.49, 1.2725, 0.5875, 1.3725, 0.685],
  "SoftwareVersions": "syngo_MR_E11",
  "SpacingBetweenSlices": 2,
  "StationName": "MRC35049",
  "TaskName": "wedges",
  "TotalReadoutTime": 0.0576811,
  "TxRefAmp": 271.307,
  "WipMemBlock": "25710fe7-1cdf-4224-a62e-09f548d27431||Sequence: R016 ve11c/master r/e634e98; Dec 19 2017 11:00:25 by eja",
  "dcmmeta_affine": [
    [-1.9986845254898071, -0.003837267402559519, 0.0724259465932846, 107.68640899658203],
    [-0.023307284340262413, 1.9252454042434692, -0.5411904454231262, -72.71220397949219],
    [0.06868050992488861, 0.5416784882545471, 1.9240237474441528, -59.25651931762695],
    [0.0, 0.0, 0.0, 1.0]
],
  "dcmmeta_reorient_transform": [
    [0.0, -1.0, 0.0, 103.0],
    [1.0, 0.0, 0.0, 0.0],
    [0.0, 0.0, 1.0, 0.0],
    [0.0, 0.0, 0.0, 1.0]
],
  "dcmmeta_shape": [104, 104, 60, 202],
  "dcmmeta_slice_dim": 2,
  "dcmmeta_version": 0.6,
  "global": {
    "const": {
      "AcquisitionMatrix": [104, 0, 0, 104],
      "AngioFlag": "N",
      "BitsAllocated": 16,
      "BitsStored": 16,
      "BodyPartExamined": "BRAIN",
      "Columns": 832,
      "EchoNumbers": 1,
      "EchoTime": 37.0,
      "EchoTrainLength": 104,
      "FlipAngle": 52.0,
      "HighBit": 15,
      "ImageOrientationPatient": [0.99934225341909, 0.01165364259783, 0.03434025546588, -0.0019186336945, 0.96262267848523, -0.270839246991],
      "ImagePositionPatient": [-833.41556344441, -834.86122769335, 168.7076325981],
      "ImageType": [
        "ORIGINAL",
        "PRIMARY",
        "M",
        "MB",
        "ND",
        "MOSAIC"
],
      "ImagedNucleus": "1H",
      "ImagingFrequency": 123.258938,
      "InPlanePhaseEncodingDirection": "COL",
      "MRAcquisitionType": "2D",
      "MagneticFieldStrength": 3.0,
      "Manufacturer": "SIEMENS",
      "ManufacturerModelName": "Prisma_fit",
      "Modality": "MR",
      "NumberOfAverages": 1.0,
      "NumberOfPhaseEncodingSteps": 104,
      "PercentPhaseFieldOfView": 100.0,
      "PercentSampling": 100.0,
      "PerformedProcedureStepStartTime": "140205.026000",
      "PhotometricInterpretation": "MONOCHROME2",
      "PixelBandwidth": 2290.0,
      "PixelRepresentation": 0,
      "PixelSpacing": [2.0, 2.0],
      "ProtocolName": "func_task-wedges",
      "RepetitionTime": 1490.0,
      "Rows": 832,
      "SAR": 0.06781076197718,
      "SamplesPerPixel": 1,
      "ScanOptions": "FS",
      "ScanningSequence": "EP",
      "SequenceName": "epfid2d1_104",
      "SequenceVariant": [
        "SK",
        "SS"
],
      "SeriesDescription": "func_task-wedges",
      "SeriesNumber": 10,
      "SeriesTime": "140724.354000",
      "SliceLocation": -33.430254138917,
      "SliceThickness": 2.0,
      "SmallestImagePixelValue": 0,
      "SoftwareVersions": "syngo MR E11",
      "SpacingBetweenSlices": 1.9999999626876,
      "SpecificCharacterSet": "ISO_IR 100",
      "StudyID": "1",
      "StudyTime": "140204.949000",
      "TransmitCoilName": "Body",
      "VariableFlipAngleFlag": "N",
      "WindowCenterWidthExplanation": "Algo1",
      "dBdt": 0.0},
    "slices": {}
  },
  "time": {
    "samples": {
      "AcquisitionNumber": [1, 2, 3, 4, 5, 6, 7, 8, 9, 10, 11, 12, 13, 14, 15, 16, 17, 18, 19, 20, 21, 22, 23, 24, 25, 26, 27, 28, 29, 30, 31, 32, 33, 34, 35, 36, 37, 38, 39, 40, 41, 42, 43, 44, 45, 46, 47, 48, 49, 50, 51, 52, 53, 54, 55, 56, 57, 58, 59, 60, 61, 62, 63, 64, 65, 66, 67, 68, 69, 70, 71, 72, 73, 74, 75, 76, 77, 78, 79, 80, 81, 82, 83, 84, 85, 86, 87, 88, 89, 90, 91, 92, 93, 94, 95, 96, 97, 98, 99, 100, 101, 102, 103, 104, 105, 106, 107, 108, 109, 110, 111, 112, 113, 114, 115, 116, 117, 118, 119, 120, 121, 122, 123, 124, 125, 126, 127, 128, 129, 130, 131, 132, 133, 134, 135, 136, 137, 138, 139, 140, 141, 142, 143, 144, 145, 146, 147, 148, 149, 150, 151, 152, 153, 154, 155, 156, 157, 158, 159, 160, 161, 162, 163, 164, 165, 166, 167, 168, 169, 170, 171, 172, 173, 174, 175, 176, 177, 178, 179, 180, 181, 182, 183, 184, 185, 186, 187, 188, 189, 190, 191, 192, 193, 194, 195, 196, 197, 198, 199, 200, 201, 202],
      "AcquisitionTime": ["140553.807500", "140555.297500", "140556.787500", "140558.277500", "140559.767500", "140601.257500", "140602.747500", "140604.237500", "140605.727500", "140607.217500", "140608.707500", "140610.197500", "140611.687500", "140613.177500", "140614.667500", "140616.157500", "140617.647500", "140619.137500", "140620.627500", "140622.117500", "140623.607500", "140625.097500", "140626.587500", "140628.077500", "140629.567500", "140631.057500", "140632.547500", "140634.037500", "140635.527500", "140637.017500", "140638.507500", "140639.997500", "140641.487500", "140642.977500", "140644.467500", "140645.957500", "140647.447500", "140648.937500", "140650.427500", "140651.917500", "140653.407500", "140654.897500", "140656.387500", "140657.877500", "140659.367500", "140700.857500", "140702.347500", "140703.837500", "140705.327500", "140706.817500", "140708.307500", "140709.797500", "140711.287500", "140712.777500", "140714.267500", "140715.757500", "140717.247500", "140718.737500", "140720.227500", "140721.717500", "140723.207500", "140724.697500", "140726.187500", "140727.677500", "140729.167500", "140730.657500", "140732.147500", "140733.637500", "140735.127500", "140736.617500", "140738.107500", "140739.597500", "140741.087500", "140742.577500", "140744.067500", "140745.557500", "140747.047500", "140748.537500", "140750.027500", "140751.517500", "140753.007500", "140754.497500", "140755.987500", "140757.477500", "140758.967500", "140800.457500", "140801.947500", "140803.437500", "140804.927500", "140806.417500", "140807.907500", "140809.397500", "140810.887500", "140812.377500", "140813.867500", "140815.357500", "140816.847500", "140818.337500", "140819.827500", "140821.317500", "140822.807500", "140824.297500", "140825.787500", "140827.277500", "140828.767500", "140830.257500", "140831.747500", "140833.237500", "140834.727500", "140836.217500", "140837.707500", "140839.197500", "140840.687500", "140842.177500", "140843.667500", "140845.157500", "140846.647500", "140848.137500", "140849.627500", "140851.117500", "140852.607500", "140854.097500", "140855.587500", "140857.077500", "140858.567500", "140900.057500", "140901.547500", "140903.037500", "140904.527500", "140906.017500", "140907.507500", "140908.997500", "140910.487500", "140911.977500", "140913.467500", "140914.957500", "140916.447500", "140917.937500", "140919.427500", "140920.917500", "140922.407500", "140923.897500", "140925.387500", "140926.877500", "140928.367500", "140929.857500", "140931.347500", "140932.837500", "140934.327500", "140935.817500", "140937.307500", "140938.797500", "140940.287500", "140941.777500", "140943.267500", "140944.757500", "140946.247500", "140947.737500", "140949.227500", "140950.717500", "140952.207500", "140953.697500", "140955.187500", "140956.677500", "140958.167500", "140959.657500", "141001.147500", "141002.637500", "141004.127500", "141005.617500", "141007.107500", "141008.597500", "141010.087500", "141011.577500", "141013.067500", "141014.557500", "141016.047500", "141017.537500", "141019.027500", "141020.517500", "141022.007500", "141023.497500", "141024.987500", "141026.477500", "141027.967500", "141029.457500", "141030.947500", "141032.437500", "141033.927500", "141035.417500", "141036.907500", "141038.397500", "141039.887500", "141041.377500", "141042.867500", "141044.357500", "141045.847500", "141047.337500", "141048.827500", "141050.317500", "141051.807500", "141053.297500"],
      "ContentTime": ["140724.358000", "140724.362000", "140724.365000", "140724.369000", "140724.372000", "140724.375000", "140724.392000", "140724.396000", "140724.399000", "140724.402000", "140724.406000", "140724.409000", "140724.412000", "140724.416000", "140724.419000", "140724.423000", "140724.426000", "140724.429000", "140724.433000", "140724.436000", "140724.440000", "140724.443000", "140724.446000", "140724.450000", "140724.453000", "140724.456000", "140724.460000", "140724.463000", "140724.467000", "140724.470000", "140724.474000", "140724.477000", "140724.480000", "140744.311000", "140744.315000", "140744.319000", "140744.322000", "140744.326000", "140744.329000", "140744.332000", "140744.336000", "140744.339000", "140744.343000", "140744.346000", "140744.354000", "140744.358000", "140744.361000", "140744.364000", "140744.368000", "140744.371000", "140744.375000", "140744.378000", "140744.381000", "140744.385000", "140804.312000", "140804.316000", "140804.319000", "140804.323000", "140804.326000", "140804.330000", "140804.333000", "140804.337000", "140804.340000", "140804.343000", "140804.347000", "140804.350000", "140804.354000", "140804.357000", "140804.360000", "140804.364000", "140804.367000", "140804.371000", "140804.374000", "140804.378000", "140824.311000", "140824.315000", "140824.318000", "140824.322000", "140824.325000", "140824.329000", "140824.332000", "140824.335000", "140824.339000", "140824.342000", "140824.346000", "140824.349000", "140824.353000", "140824.357000", "140824.360000", "140824.364000", "140824.367000", "140824.370000", "140824.374000", "140824.377000", "140904.311000", "140904.315000", "140904.328000", "140904.331000", "140904.335000", "140904.338000", "140904.341000", "140904.345000", "140904.348000", "140904.352000", "140904.355000", "140904.358000", "140904.362000", "140904.365000", "140904.369000", "140904.372000", "140904.375000", "140904.379000", "140904.382000", "140904.386000", "140904.389000", "140904.392000", "140904.396000", "140904.399000", "140904.403000", "140904.406000", "140904.410000", "140904.413000", "140904.417000", "140904.420000", "140904.424000", "140904.427000", "140904.431000", "140944.311000", "140944.315000", "140944.319000", "140944.322000", "140944.326000", "140944.329000", "140944.332000", "140944.336000", "140944.339000", "140944.343000", "140944.346000", "140944.350000", "140944.353000", "140944.357000", "140944.360000", "140944.364000", "140944.367000", "140944.370000", "140944.374000", "140944.377000", "140944.381000", "140944.384000", "140944.388000", "140944.391000", "140944.394000", "140944.398000", "140944.401000", "141024.311000", "141024.315000", "141024.319000", "141024.322000", "141024.333000", "141024.337000", "141024.340000", "141024.343000", "141024.347000", "141024.351000", "141024.354000", "141024.357000", "141024.361000", "141024.364000", "141024.368000", "141024.371000", "141024.375000", "141024.380000", "141024.383000", "141024.387000", "141024.390000", "141024.394000", "141024.397000", "141024.401000", "141024.404000", "141024.408000", "141055.744000", "141055.748000", "141055.752000", "141055.756000", "141055.759000", "141055.763000", "141055.767000", "141055.771000", "141055.776000", "141055.779000", "141055.783000", "141055.787000", "141055.790000", "141055.794000", "141055.797000", "141055.801000", "141055.821000", "141055.825000", "141055.828000", "141055.831000", "141055.835000", "141055.839000"],
      "InstanceCreationTime": ["140724.358000", "140724.362000", "140724.365000", "140724.369000", "140724.372000", "140724.375000", "140724.392000", "140724.396000", "140724.399000", "140724.402000", "140724.406000", "140724.409000", "140724.412000", "140724.416000", "140724.419000", "140724.423000", "140724.426000", "140724.429000", "140724.433000", "140724.436000", "140724.440000", "140724.443000", "140724.446000", "140724.450000", "140724.453000", "140724.456000", "140724.460000", "140724.463000", "140724.467000", "140724.470000", "140724.474000", "140724.477000", "140724.480000", "140744.311000", "140744.315000", "140744.319000", "140744.322000", "140744.326000", "140744.329000", "140744.332000", "140744.336000", "140744.339000", "140744.343000", "140744.346000", "140744.354000", "140744.358000", "140744.361000", "140744.364000", "140744.368000", "140744.371000", "140744.375000", "140744.378000", "140744.381000", "140744.385000", "140804.312000", "140804.316000", "140804.319000", "140804.323000", "140804.326000", "140804.330000", "140804.333000", "140804.337000", "140804.340000", "140804.343000", "140804.347000", "140804.350000", "140804.354000", "140804.357000", "140804.360000", "140804.364000", "140804.367000", "140804.371000", "140804.374000", "140804.378000", "140824.311000", "140824.315000", "140824.318000", "140824.322000", "140824.325000", "140824.329000", "140824.332000", "140824.335000", "140824.339000", "140824.342000", "140824.346000", "140824.349000", "140824.353000", "140824.357000", "140824.360000", "140824.364000", "140824.367000", "140824.370000", "140824.374000", "140824.377000", "140904.311000", "140904.315000", "140904.328000", "140904.331000", "140904.335000", "140904.338000", "140904.341000", "140904.345000", "140904.348000", "140904.352000", "140904.355000", "140904.358000", "140904.362000", "140904.365000", "140904.369000", "140904.372000", "140904.375000", "140904.379000", "140904.382000", "140904.386000", "140904.389000", "140904.392000", "140904.396000", "140904.399000", "140904.403000", "140904.406000", "140904.410000", "140904.413000", "140904.417000", "140904.420000", "140904.424000", "140904.427000", "140904.431000", "140944.311000", "140944.315000", "140944.319000", "140944.322000", "140944.326000", "140944.329000", "140944.332000", "140944.336000", "140944.339000", "140944.343000", "140944.346000", "140944.350000", "140944.353000", "140944.357000", "140944.360000", "140944.364000", "140944.367000", "140944.370000", "140944.374000", "140944.377000", "140944.381000", "140944.384000", "140944.388000", "140944.391000", "140944.394000", "140944.398000", "140944.401000", "141024.311000", "141024.315000", "141024.319000", "141024.322000", "141024.333000", "141024.337000", "141024.340000", "141024.343000", "141024.347000", "141024.351000", "141024.354000", "141024.357000", "141024.361000", "141024.364000", "141024.368000", "141024.371000", "141024.375000", "141024.380000", "141024.383000", "141024.387000", "141024.390000", "141024.394000", "141024.397000", "141024.401000", "141024.404000", "141024.408000", "141055.744000", "141055.748000", "141055.752000", "141055.756000", "141055.759000", "141055.763000", "141055.767000", "141055.771000", "141055.776000", "141055.779000", "141055.783000", "141055.787000", "141055.790000", "141055.794000", "141055.797000", "141055.801000", "141055.821000", "141055.825000", "141055.828000", "141055.831000", "141055.835000", "141055.839000"],
      "InstanceNumber": [1, 2, 3, 4, 5, 6, 7, 8, 9, 10, 11, 12, 13, 14, 15, 16, 17, 18, 19, 20, 21, 22, 23, 24, 25, 26, 27, 28, 29, 30, 31, 32, 33, 34, 35, 36, 37, 38, 39, 40, 41, 42, 43, 44, 45, 46, 47, 48, 49, 50, 51, 52, 53, 54, 55, 56, 57, 58, 59, 60, 61, 62, 63, 64, 65, 66, 67, 68, 69, 70, 71, 72, 73, 74, 75, 76, 77, 78, 79, 80, 81, 82, 83, 84, 85, 86, 87, 88, 89, 90, 91, 92, 93, 94, 95, 96, 97, 98, 99, 100, 101, 102, 103, 104, 105, 106, 107, 108, 109, 110, 111, 112, 113, 114, 115, 116, 117, 118, 119, 120, 121, 122, 123, 124, 125, 126, 127, 128, 129, 130, 131, 132, 133, 134, 135, 136, 137, 138, 139, 140, 141, 142, 143, 144, 145, 146, 147, 148, 149, 150, 151, 152, 153, 154, 155, 156, 157, 158, 159, 160, 161, 162, 163, 164, 165, 166, 167, 168, 169, 170, 171, 172, 173, 174, 175, 176, 177, 178, 179, 180, 181, 182, 183, 184, 185, 186, 187, 188, 189, 190, 191, 192, 193, 194, 195, 196, 197, 198, 199, 200, 201, 202],
      "LargestImagePixelValue": [40481, 39519, 38848, 38287, 38461, 37986, 37802, 38370, 38171, 38518, 38388, 38260, 38395, 38390, 38319, 38068, 38074, 37936, 38206, 38377, 37839, 38400, 38155, 37709, 38343, 38408, 38386, 38264, 38040, 38550, 38077, 38273, 37862, 37762, 38534, 38221, 37842, 38218, 37977, 37860, 38195, 37805, 38006, 38087, 38138, 37942, 38108, 37996, 38334, 37904, 38234, 37734, 38298, 38263, 38132, 38171, 38275, 38211, 38227, 38199, 38028, 37997, 38440, 38070, 37930, 38259, 38120, 38435, 38193, 38100, 37971, 38152, 37769, 37894, 37842, 37906, 38236, 38294, 38062, 38174, 37787, 38417, 37888, 37870, 38545, 37962, 37869, 38018, 38215, 38311, 38002, 38019, 38278, 38111, 37959, 38300, 38029, 38028, 37992, 37633, 37967, 38170, 37617, 37826, 38366, 37988, 38279, 37919, 37950, 37797, 37953, 38338, 37979, 37699, 38265, 38159, 38003, 38123, 38257, 38119, 38732, 37974, 37858, 38284, 38000, 38016, 38189, 37777, 38242, 38065, 37868, 38198, 38065, 37768, 38229, 37925, 37928, 37942, 38175, 39123, 38688, 38244, 38160, 38307, 37891, 38123, 37817, 38137, 38236, 37930, 37870, 38126, 37873, 38184, 38158, 37726, 38333, 37789, 38021, 38212, 38130, 38337, 38156, 38194, 37719, 38114, 38281, 37913, 38246, 38013, 37918, 38209, 38145, 38430, 37941, 38309, 38197, 37816, 38042, 37857, 37981, 38518, 38232, 38327, 38369, 38042, 38315, 38157, 38503, 38285, 38306, 38003, 37823, 38028, 37603, 38329, 38113, 38316, 38114, 37962, 37709, 37819],
      "WindowCenter": [10206.0, 10158.0, 10148.0, 10148.0, 10152.0, 10142.0, 10131.0, 10121.0, 10095.0, 10092.0, 10098.0, 10117.0, 10132.0, 10141.0, 10143.0, 10136.0, 10129.0, 10133.0, 10128.0, 10133.0, 10121.0, 10126.0, 10128.0, 10122.0, 10134.0, 10126.0, 10109.0, 10100.0, 10113.0, 10118.0, 10121.0, 10125.0, 10127.0, 10128.0, 10151.0, 10153.0, 10157.0, 10156.0, 10147.0, 10131.0, 10120.0, 10113.0, 10118.0, 10130.0, 10138.0, 10137.0, 10121.0, 10110.0, 10117.0, 10130.0, 10138.0, 10122.0, 10110.0, 10099.0, 10108.0, 10117.0, 10134.0, 10128.0, 10128.0, 10112.0, 10110.0, 10101.0, 10115.0, 10128.0, 10137.0, 10135.0, 10114.0, 10116.0, 10119.0, 10145.0, 10147.0, 10148.0, 10132.0, 10124.0, 10120.0, 10119.0, 10142.0, 10162.0, 10154.0, 10139.0, 10120.0, 10115.0, 10095.0, 10107.0, 10124.0, 10134.0, 10147.0, 10151.0, 10142.0, 10130.0, 10123.0, 10127.0, 10136.0, 10131.0, 10138.0, 10136.0, 10123.0, 10119.0, 10119.0, 10113.0, 10120.0, 10128.0, 10122.0, 10108.0, 10102.0, 10117.0, 10133.0, 10131.0, 10119.0, 10105.0, 10100.0, 10109.0, 10119.0, 10138.0, 10147.0, 10149.0, 10130.0, 10120.0, 10113.0, 10120.0, 10132.0, 10128.0, 10107.0, 10123.0, 10120.0, 10127.0, 10129.0, 10148.0, 10171.0, 10167.0, 10142.0, 10115.0, 10106.0, 10112.0, 10123.0, 10109.0, 10096.0, 10072.0, 10061.0, 10086.0, 10107.0, 10135.0, 10136.0, 10138.0, 10131.0, 10131.0, 10121.0, 10113.0, 10104.0, 10104.0, 10097.0, 10104.0, 10096.0, 10103.0, 10096.0, 10112.0, 10136.0, 10141.0, 10124.0, 10121.0, 10106.0, 10122.0, 10131.0, 10132.0, 10117.0, 10114.0, 10104.0, 10121.0, 10152.0, 10164.0, 10144.0, 10127.0, 10105.0, 10103.0, 10111.0, 10112.0, 10114.0, 10106.0, 10120.0, 10107.0, 10110.0, 10102.0, 10127.0, 10144.0, 10138.0, 10114.0, 10102.0, 10094.0, 10107.0, 10132.0, 10152.0, 10147.0, 10128.0, 10115.0, 10096.0, 10086.0, 10082.0, 10083.0, 10093.0, 10109.0, 10105.0, 10104.0],
      "WindowWidth": [21758.0, 21625.0, 21590.0, 21585.0, 21588.0, 21567.0, 21538.0, 21511.0, 21454.0, 21444.0, 21459.0, 21503.0, 21536.0, 21557.0, 21562.0, 21548.0, 21534.0, 21539.0, 21528.0, 21540.0, 21518.0, 21525.0, 21531.0, 21520.0, 21542.0, 21524.0, 21485.0, 21465.0, 21493.0, 21507.0, 21520.0, 21524.0, 21527.0, 21531.0, 21583.0, 21590.0, 21600.0, 21596.0, 21573.0, 21535.0, 21506.0, 21496.0, 21505.0, 21538.0, 21556.0, 21550.0, 21515.0, 21488.0, 21504.0, 21537.0, 21553.0, 21517.0, 21484.0, 21458.0, 21479.0, 21504.0, 21542.0, 21528.0, 21528.0, 21490.0, 21484.0, 21467.0, 21494.0, 21529.0, 21549.0, 21542.0, 21499.0, 21498.0, 21508.0, 21569.0, 21576.0, 21578.0, 21539.0, 21522.0, 21507.0, 21509.0, 21557.0, 21603.0, 21585.0, 21550.0, 21508.0, 21493.0, 21454.0, 21478.0, 21515.0, 21542.0, 21573.0, 21585.0, 21562.0, 21531.0, 21520.0, 21526.0, 21548.0, 21537.0, 21549.0, 21541.0, 21515.0, 21503.0, 21504.0, 21491.0, 21507.0, 21527.0, 21516.0, 21486.0, 21467.0, 21501.0, 21537.0, 21535.0, 21503.0, 21474.0, 21462.0, 21481.0, 21507.0, 21554.0, 21570.0, 21575.0, 21532.0, 21510.0, 21493.0, 21508.0, 21532.0, 21526.0, 21478.0, 21510.0, 21508.0, 21521.0, 21527.0, 21576.0, 21623.0, 21614.0, 21555.0, 21493.0, 21473.0, 21489.0, 21517.0, 21488.0, 21452.0, 21398.0, 21374.0, 21426.0, 21480.0, 21543.0, 21544.0, 21551.0, 21535.0, 21535.0, 21511.0, 21490.0, 21470.0, 21470.0, 21454.0, 21472.0, 21455.0, 21467.0, 21454.0, 21490.0, 21545.0, 21559.0, 21519.0, 21511.0, 21477.0, 21515.0, 21534.0, 21537.0, 21505.0, 21494.0, 21472.0, 21512.0, 21580.0, 21610.0, 21567.0, 21528.0, 21474.0, 21467.0, 21487.0, 21491.0, 21497.0, 21480.0, 21506.0, 21480.0, 21482.0, 21464.0, 21523.0, 21560.0, 21546.0, 21492.0, 21461.0, 21446.0, 21473.0, 21532.0, 21578.0, 21568.0, 21527.0, 21496.0, 21452.0, 21428.0, 21418.0, 21422.0, 21447.0, 21480.0, 21473.0, 21469.0]
    },
    "slices": {}
  }
}