{
  "AcquisitionMatrixPE": 104,
  "AcquisitionNumber": 1,
  "AcquisitionTime": "14:18:32.170000",
  "BandwidthPerPixelPhaseEncode": 17.17,
  "BaseResolution": 104,
  "BodyPartExamined": "BRAIN",
  "CoilString": "HC1-7;NC1_2",
  "ConsistencyInfo": "N4_VE11C_LATEST_20160120",
  "ConversionSoftware": "dcm2niix",
  "ConversionSoftwareVersion": "v1.0.20190902",
  "DerivedVendorReportedEchoSpacing": 0.000560011,
  "DeviceSerialNumber": "167006",
  "DwellTime": 2.1e-06,
  "EchoTime": 0.037,
  "EchoTrainLength": 104,
  "EffectiveEchoSpacing": 0.000560011,
  "FlipAngle": 52,
  "ImageComments": "Unaliased_MB4_PE3_LB",
  "ImageOrientationPatientDICOM": [0.999342, 0.0116536, 0.0343403, -0.00191863, 0.962623, -0.270839],
  "ImageType": [
    "ORIGINAL",
    "PRIMARY",
    "P",
    "MB",
    "ND",
    "MOSAIC"
],
  "ImagingFrequency": 123.259,
  "InPlanePhaseEncodingDirectionDICOM": "COL",
  "InstitutionAddress": "Chemin_Queen-Mary_4565_Montreal_District_CA_H3W_1W5",
  "InstitutionName": "IUGM",
  "InstitutionalDepartmentName": "Department",
  "MRAcquisitionType": "2D",
  "MagneticFieldStrength": 3,
  "Manufacturer": "Siemens",
  "ManufacturersModelName": "Prisma_fit",
  "Modality": "MR",
  "MultibandAccelerationFactor": 4,
  "PartialFourier": 1,
  "PatientPosition": "HFS",
  "PercentPhaseFOV": 100,
  "PhaseEncodingDirection": "j",
  "PhaseEncodingSteps": 104,
  "PhaseResolution": 1,
  "PixelBandwidth": 2290,
  "ProcedureStepDescription": "localizers_retinotopy",
  "ProtocolName": "func_task-bars",
  "PulseSequenceDetails": "%CustomerSeq%_cmrr_mbep2d_bold",
  "ReceiveCoilActiveElements": "HC1-7;NC1,2",
  "ReceiveCoilName": "HeadNeck_64",
  "ReconMatrixPE": 104,
  "RepetitionTime": 1.49,
  "SAR": 0.0678108,
  "ScanOptions": "FS",
  "ScanningSequence": "EP",
  "SequenceName": "epfid2d1_104",
  "SequenceVariant": "SK_SS",
  "SeriesDescription": "func_task-bars",
  "SeriesNumber": 17,
  "ShimSetting": [636, -7209, -8768, 690, 61, 31, 64, 8],
  "SliceThickness": 2,
  "SliceTiming": [0, 0.785, 0.0975, 0.8825, 0.1975, 0.98, 0.295, 1.0775, 0.3925, 1.1775, 0.49, 1.275, 0.5875, 1.3725, 0.6875, 0, 0.785, 0.0975, 0.8825, 0.1975, 0.98, 0.295, 1.0775, 0.3925, 1.1775, 0.49, 1.275, 0.5875, 1.3725, 0.6875, 0, 0.785, 0.0975, 0.8825, 0.1975, 0.98, 0.295, 1.0775, 0.3925, 1.1775, 0.49, 1.275, 0.5875, 1.3725, 0.6875, 0, 0.785, 0.0975, 0.8825, 0.1975, 0.98, 0.295, 1.0775, 0.3925, 1.1775, 0.49, 1.275, 0.5875, 1.3725, 0.6875],
  "SoftwareVersions": "syngo_MR_E11",
  "SpacingBetweenSlices": 2,
  "StationName": "MRC35049",
  "TaskName": "bars",
  "TotalReadoutTime": 0.0576811,
  "TxRefAmp": 271.307,
  "WipMemBlock": "5a5d5f1b-8182-4311-b483-3bf1931ac71d||Sequence: R016 ve11c/master r/e634e98; Dec 19 2017 11:00:25 by eja",
  "dcmmeta_affine": [
    [-1.9986845254898071, -0.003837267402559519, 0.0724259465932846, 107.68640899658203],
    [-0.023307284340262413, 1.9252454042434692, -0.5411904454231262, -72.71220397949219],
    [0.06868050992488861, 0.5416784882545471, 1.9240237474441528, -59.25651931762695],
    [0.0, 0.0, 0.0, 1.0]
],
  "dcmmeta_reorient_transform": [
    [0.0, -1.0, 0.0, 103.0],
    [1.0, 0.0, 0.0, 0.0],
    [0.0, 0.0, 1.0, 0.0],
    [0.0, 0.0, 0.0, 1.0]
],
  "dcmmeta_shape": [104, 104, 60, 202],
  "dcmmeta_slice_dim": 2,
  "dcmmeta_version": 0.6,
  "global": {
    "const": {
      "AcquisitionMatrix": [104, 0, 0, 104],
      "AngioFlag": "N",
      "BitsAllocated": 16,
      "BitsStored": 16,
      "BodyPartExamined": "BRAIN",
      "Columns": 832,
      "EchoNumbers": 1,
      "EchoTime": 37.0,
      "EchoTrainLength": 104,
      "FlipAngle": 52.0,
      "HighBit": 15,
      "ImageOrientationPatient": [0.99934225341909, 0.01165364259783, 0.03434025546588, -0.0019186336945, 0.96262267848523, -0.270839246991],
      "ImagePositionPatient": [-833.41556344441, -834.86122769335, 168.7076325981],
      "ImageType": [
        "ORIGINAL",
        "PRIMARY",
        "P",
        "MB",
        "ND",
        "MOSAIC"
],
      "ImagedNucleus": "1H",
      "ImagingFrequency": 123.258942,
      "InPlanePhaseEncodingDirection": "COL",
      "LargestImagePixelValue": 4095,
      "MRAcquisitionType": "2D",
      "MagneticFieldStrength": 3.0,
      "Manufacturer": "SIEMENS",
      "ManufacturerModelName": "Prisma_fit",
      "Modality": "MR",
      "NumberOfAverages": 1.0,
      "NumberOfPhaseEncodingSteps": 104,
      "PercentPhaseFieldOfView": 100.0,
      "PercentSampling": 100.0,
      "PerformedProcedureStepStartTime": "140205.026000",
      "PhotometricInterpretation": "MONOCHROME2",
      "PixelBandwidth": 2290.0,
      "PixelRepresentation": 0,
      "PixelSpacing": [2.0, 2.0],
      "ProtocolName": "func_task-bars",
      "RepetitionTime": 1490.0,
      "RescaleIntercept": -4096.0,
      "RescaleSlope": 2.0,
      "RescaleType": "US",
      "Rows": 832,
      "SAR": 0.06781076197718,
      "SamplesPerPixel": 1,
      "ScanOptions": "FS",
      "ScanningSequence": "EP",
      "SequenceName": "epfid2d1_104",
      "SequenceVariant": [
        "SK",
        "SS"
],
      "SeriesDescription": "func_task-bars",
      "SeriesNumber": 17,
      "SeriesTime": "142003.786000",
      "SliceLocation": -33.430254138917,
      "SliceThickness": 2.0,
      "SmallestImagePixelValue": 0,
      "SoftwareVersions": "syngo MR E11",
      "SpacingBetweenSlices": 1.9999999626876,
      "SpecificCharacterSet": "ISO_IR 100",
      "StudyID": "1",
      "StudyTime": "140204.949000",
      "TransmitCoilName": "Body",
      "VariableFlipAngleFlag": "N",
      "WindowCenterWidthExplanation": "Algo1",
      "dBdt": 0.0},
    "slices": {}
  },
  "time": {
    "samples": {
      "AcquisitionNumber": [1, 2, 3, 4, 5, 6, 7, 8, 9, 10, 11, 12, 13, 14, 15, 16, 17, 18, 19, 20, 21, 22, 23, 24, 25, 26, 27, 28, 29, 30, 31, 32, 33, 34, 35, 36, 37, 38, 39, 40, 41, 42, 43, 44, 45, 46, 47, 48, 49, 50, 51, 52, 53, 54, 55, 56, 57, 58, 59, 60, 61, 62, 63, 64, 65, 66, 67, 68, 69, 70, 71, 72, 73, 74, 75, 76, 77, 78, 79, 80, 81, 82, 83, 84, 85, 86, 87, 88, 89, 90, 91, 92, 93, 94, 95, 96, 97, 98, 99, 100, 101, 102, 103, 104, 105, 106, 107, 108, 109, 110, 111, 112, 113, 114, 115, 116, 117, 118, 119, 120, 121, 122, 123, 124, 125, 126, 127, 128, 129, 130, 131, 132, 133, 134, 135, 136, 137, 138, 139, 140, 141, 142, 143, 144, 145, 146, 147, 148, 149, 150, 151, 152, 153, 154, 155, 156, 157, 158, 159, 160, 161, 162, 163, 164, 165, 166, 167, 168, 169, 170, 171, 172, 173, 174, 175, 176, 177, 178, 179, 180, 181, 182, 183, 184, 185, 186, 187, 188, 189, 190, 191, 192, 193, 194, 195, 196, 197, 198, 199, 200, 201, 202],
      "AcquisitionTime": ["141832.170000", "141833.660000", "141835.150000", "141836.640000", "141838.130000", "141839.620000", "141841.110000", "141842.600000", "141844.090000", "141845.580000", "141847.070000", "141848.560000", "141850.050000", "141851.540000", "141853.030000", "141854.520000", "141856.010000", "141857.500000", "141858.990000", "141900.480000", "141901.970000", "141903.460000", "141904.950000", "141906.440000", "141907.930000", "141909.420000", "141910.910000", "141912.400000", "141913.890000", "141915.380000", "141916.870000", "141918.360000", "141919.850000", "141921.340000", "141922.830000", "141924.320000", "141925.810000", "141927.300000", "141928.790000", "141930.280000", "141931.770000", "141933.260000", "141934.750000", "141936.240000", "141937.730000", "141939.220000", "141940.710000", "141942.200000", "141943.690000", "141945.180000", "141946.670000", "141948.160000", "141949.650000", "141951.140000", "141952.630000", "141954.120000", "141955.610000", "141957.100000", "141958.590000", "142000.080000", "142001.570000", "142003.060000", "142004.550000", "142006.040000", "142007.530000", "142009.020000", "142010.510000", "142012.000000", "142013.490000", "142014.980000", "142016.470000", "142017.960000", "142019.450000", "142020.940000", "142022.430000", "142023.920000", "142025.410000", "142026.900000", "142028.390000", "142029.880000", "142031.370000", "142032.860000", "142034.350000", "142035.840000", "142037.330000", "142038.820000", "142040.310000", "142041.800000", "142043.290000", "142044.780000", "142046.270000", "142047.760000", "142049.250000", "142050.740000", "142052.230000", "142053.720000", "142055.210000", "142056.700000", "142058.190000", "142059.680000", "142101.170000", "142102.660000", "142104.150000", "142105.640000", "142107.130000", "142108.620000", "142110.110000", "142111.600000", "142113.090000", "142114.580000", "142116.070000", "142117.560000", "142119.050000", "142120.540000", "142122.030000", "142123.520000", "142125.010000", "142126.500000", "142127.990000", "142129.480000", "142130.970000", "142132.460000", "142133.950000", "142135.440000", "142136.930000", "142138.420000", "142139.910000", "142141.400000", "142142.890000", "142144.380000", "142145.870000", "142147.360000", "142148.850000", "142150.340000", "142151.830000", "142153.320000", "142154.810000", "142156.300000", "142157.790000", "142159.280000", "142200.770000", "142202.260000", "142203.750000", "142205.240000", "142206.730000", "142208.220000", "142209.710000", "142211.200000", "142212.690000", "142214.180000", "142215.670000", "142217.160000", "142218.650000", "142220.140000", "142221.630000", "142223.120000", "142224.610000", "142226.100000", "142227.590000", "142229.080000", "142230.570000", "142232.060000", "142233.550000", "142235.040000", "142236.530000", "142238.020000", "142239.510000", "142241.000000", "142242.490000", "142243.980000", "142245.470000", "142246.960000", "142248.450000", "142249.940000", "142251.430000", "142252.920000", "142254.410000", "142255.900000", "142257.390000", "142258.880000", "142300.370000", "142301.860000", "142303.350000", "142304.840000", "142306.330000", "142307.820000", "142309.310000", "142310.800000", "142312.290000", "142313.780000", "142315.270000", "142316.760000", "142318.250000", "142319.740000", "142321.230000", "142322.720000", "142324.210000", "142325.700000", "142327.190000", "142328.680000", "142330.170000", "142331.660000"],
      "ContentTime": ["142003.788000", "142003.791000", "142003.793000", "142003.796000", "142003.799000", "142003.801000", "142003.804000", "142003.806000", "142003.809000", "142003.811000", "142003.814000", "142003.817000", "142003.820000", "142003.822000", "142003.825000", "142003.827000", "142003.830000", "142003.833000", "142003.835000", "142003.838000", "142003.840000", "142003.843000", "142003.846000", "142003.848000", "142003.851000", "142003.853000", "142003.856000", "142003.859000", "142003.861000", "142003.864000", "142003.867000", "142003.870000", "142003.872000", "142003.875000", "142003.877000", "142003.880000", "142003.882000", "142003.885000", "142003.888000", "142024.065000", "142024.068000", "142024.071000", "142024.073000", "142024.076000", "142024.079000", "142024.081000", "142024.084000", "142024.086000", "142024.089000", "142024.092000", "142024.094000", "142024.097000", "142024.099000", "142024.102000", "142024.104000", "142024.107000", "142024.110000", "142024.112000", "142024.115000", "142043.636000", "142043.639000", "142043.650000", "142043.652000", "142043.655000", "142043.657000", "142043.660000", "142043.663000", "142043.665000", "142043.668000", "142043.670000", "142043.673000", "142043.676000", "142043.678000", "142043.681000", "142043.683000", "142043.686000", "142043.688000", "142043.691000", "142043.694000", "142103.653000", "142103.656000", "142103.658000", "142103.661000", "142103.663000", "142103.666000", "142103.669000", "142103.671000", "142103.674000", "142103.677000", "142103.679000", "142103.682000", "142103.684000", "142103.687000", "142103.690000", "142103.692000", "142103.695000", "142103.698000", "142103.700000", "142103.703000", "142103.706000", "142143.694000", "142143.697000", "142143.700000", "142143.703000", "142143.705000", "142143.708000", "142143.710000", "142143.713000", "142143.716000", "142143.718000", "142143.721000", "142143.723000", "142143.726000", "142143.729000", "142143.731000", "142143.734000", "142143.737000", "142143.739000", "142143.742000", "142143.744000", "142143.747000", "142143.749000", "142143.752000", "142143.754000", "142143.757000", "142143.760000", "142143.763000", "142143.765000", "142223.702000", "142223.704000", "142223.707000", "142223.710000", "142223.712000", "142223.715000", "142223.717000", "142223.720000", "142223.723000", "142223.725000", "142223.728000", "142223.731000", "142223.733000", "142223.736000", "142223.738000", "142223.741000", "142223.744000", "142223.746000", "142223.749000", "142223.751000", "142223.754000", "142223.757000", "142223.760000", "142223.762000", "142223.765000", "142223.767000", "142223.770000", "142303.688000", "142303.691000", "142303.693000", "142303.696000", "142303.698000", "142303.701000", "142303.703000", "142303.706000", "142303.709000", "142303.711000", "142303.714000", "142303.716000", "142303.719000", "142303.722000", "142303.724000", "142303.727000", "142303.729000", "142303.732000", "142303.734000", "142303.737000", "142303.740000", "142303.742000", "142303.745000", "142303.747000", "142303.750000", "142303.752000", "142333.587000", "142333.590000", "142333.593000", "142333.595000", "142333.598000", "142333.600000", "142333.603000", "142333.606000", "142333.608000", "142333.611000", "142333.613000", "142333.616000", "142333.618000", "142333.621000", "142333.624000", "142333.626000", "142333.629000", "142333.631000", "142333.634000", "142333.636000", "142333.639000"],
      "InstanceCreationTime": ["142003.788000", "142003.791000", "142003.793000", "142003.796000", "142003.799000", "142003.801000", "142003.804000", "142003.806000", "142003.809000", "142003.811000", "142003.814000", "142003.817000", "142003.820000", "142003.822000", "142003.825000", "142003.827000", "142003.830000", "142003.833000", "142003.835000", "142003.838000", "142003.840000", "142003.843000", "142003.846000", "142003.848000", "142003.851000", "142003.853000", "142003.856000", "142003.859000", "142003.861000", "142003.864000", "142003.867000", "142003.870000", "142003.872000", "142003.875000", "142003.877000", "142003.880000", "142003.882000", "142003.885000", "142003.888000", "142024.065000", "142024.068000", "142024.071000", "142024.073000", "142024.076000", "142024.079000", "142024.081000", "142024.084000", "142024.086000", "142024.089000", "142024.092000", "142024.094000", "142024.097000", "142024.099000", "142024.102000", "142024.104000", "142024.107000", "142024.110000", "142024.112000", "142024.115000", "142043.636000", "142043.639000", "142043.650000", "142043.652000", "142043.655000", "142043.657000", "142043.660000", "142043.663000", "142043.665000", "142043.668000", "142043.670000", "142043.673000", "142043.676000", "142043.678000", "142043.681000", "142043.683000", "142043.686000", "142043.688000", "142043.691000", "142043.694000", "142103.653000", "142103.656000", "142103.658000", "142103.661000", "142103.663000", "142103.666000", "142103.669000", "142103.671000", "142103.674000", "142103.677000", "142103.679000", "142103.682000", "142103.684000", "142103.687000", "142103.690000", "142103.692000", "142103.695000", "142103.698000", "142103.700000", "142103.703000", "142103.706000", "142143.694000", "142143.697000", "142143.700000", "142143.703000", "142143.705000", "142143.708000", "142143.710000", "142143.713000", "142143.716000", "142143.718000", "142143.721000", "142143.723000", "142143.726000", "142143.729000", "142143.731000", "142143.734000", "142143.737000", "142143.739000", "142143.742000", "142143.744000", "142143.747000", "142143.749000", "142143.752000", "142143.754000", "142143.757000", "142143.760000", "142143.763000", "142143.765000", "142223.702000", "142223.704000", "142223.707000", "142223.710000", "142223.712000", "142223.715000", "142223.717000", "142223.720000", "142223.723000", "142223.725000", "142223.728000", "142223.731000", "142223.733000", "142223.736000", "142223.738000", "142223.741000", "142223.744000", "142223.746000", "142223.749000", "142223.751000", "142223.754000", "142223.757000", "142223.760000", "142223.762000", "142223.765000", "142223.767000", "142223.770000", "142303.688000", "142303.691000", "142303.693000", "142303.696000", "142303.698000", "142303.701000", "142303.703000", "142303.706000", "142303.709000", "142303.711000", "142303.714000", "142303.716000", "142303.719000", "142303.722000", "142303.724000", "142303.727000", "142303.729000", "142303.732000", "142303.734000", "142303.737000", "142303.740000", "142303.742000", "142303.745000", "142303.747000", "142303.750000", "142303.752000", "142333.587000", "142333.590000", "142333.593000", "142333.595000", "142333.598000", "142333.600000", "142333.603000", "142333.606000", "142333.608000", "142333.611000", "142333.613000", "142333.616000", "142333.618000", "142333.621000", "142333.624000", "142333.626000", "142333.629000", "142333.631000", "142333.634000", "142333.636000", "142333.639000"],
      "InstanceNumber": [1, 2, 3, 4, 5, 6, 7, 8, 9, 10, 11, 12, 13, 14, 15, 16, 17, 18, 19, 20, 21, 22, 23, 24, 25, 26, 27, 28, 29, 30, 31, 32, 33, 34, 35, 36, 37, 38, 39, 40, 41, 42, 43, 44, 45, 46, 47, 48, 49, 50, 51, 52, 53, 54, 55, 56, 57, 58, 59, 60, 61, 62, 63, 64, 65, 66, 67, 68, 69, 70, 71, 72, 73, 74, 75, 76, 77, 78, 79, 80, 81, 82, 83, 84, 85, 86, 87, 88, 89, 90, 91, 92, 93, 94, 95, 96, 97, 98, 99, 100, 101, 102, 103, 104, 105, 106, 107, 108, 109, 110, 111, 112, 113, 114, 115, 116, 117, 118, 119, 120, 121, 122, 123, 124, 125, 126, 127, 128, 129, 130, 131, 132, 133, 134, 135, 136, 137, 138, 139, 140, 141, 142, 143, 144, 145, 146, 147, 148, 149, 150, 151, 152, 153, 154, 155, 156, 157, 158, 159, 160, 161, 162, 163, 164, 165, 166, 167, 168, 169, 170, 171, 172, 173, 174, 175, 176, 177, 178, 179, 180, 181, 182, 183, 184, 185, 186, 187, 188, 189, 190, 191, 192, 193, 194, 195, 196, 197, 198, 199, 200, 201, 202],
      "WindowCenter": [4772.0, 4752.0, 4774.0, 4774.0, 4776.0, 4748.0, 4772.0, 4752.0, 4774.0, 4772.0, 4772.0, 4750.0, 4772.0, 4750.0, 4750.0, 4774.0, 4776.0, 4774.0, 4750.0, 4750.0, 4776.0, 4774.0, 4772.0, 4776.0, 4776.0, 4748.0, 4774.0, 4754.0, 4774.0, 4774.0, 4776.0, 4772.0, 4774.0, 4750.0, 4774.0, 4774.0, 4750.0, 4748.0, 4774.0, 4774.0, 4752.0, 4774.0, 4774.0, 4774.0, 4772.0, 4776.0, 4776.0, 4776.0, 4750.0, 4776.0, 4776.0, 4774.0, 4752.0, 4750.0, 4774.0, 4774.0, 4776.0, 4776.0, 4774.0, 4776.0, 4774.0, 4776.0, 4750.0, 4750.0, 4770.0, 4752.0, 4776.0, 4776.0, 4774.0, 4774.0, 4774.0, 4750.0, 4770.0, 4750.0, 4774.0, 4776.0, 4772.0, 4776.0, 4774.0, 4776.0, 4752.0, 4776.0, 4748.0, 4772.0, 4774.0, 4776.0, 4774.0, 4756.0, 4774.0, 4776.0, 4774.0, 4774.0, 4752.0, 4750.0, 4752.0, 4778.0, 4776.0, 4774.0, 4774.0, 4774.0, 4752.0, 4778.0, 4748.0, 4780.0, 4776.0, 4780.0, 4776.0, 4750.0, 4774.0, 4774.0, 4776.0, 4778.0, 4776.0, 4776.0, 4772.0, 4774.0, 4772.0, 4774.0, 4778.0, 4776.0, 4778.0, 4776.0, 4776.0, 4776.0, 4750.0, 4750.0, 4752.0, 4774.0, 4774.0, 4752.0, 4770.0, 4774.0, 4776.0, 4778.0, 4774.0, 4754.0, 4776.0, 4774.0, 4774.0, 4750.0, 4776.0, 4774.0, 4752.0, 4774.0, 4774.0, 4776.0, 4774.0, 4752.0, 4776.0, 4774.0, 4754.0, 4780.0, 4752.0, 4776.0, 4776.0, 4754.0, 4778.0, 4750.0, 4774.0, 4774.0, 4776.0, 4774.0, 4750.0, 4774.0, 4752.0, 4774.0, 4778.0, 4774.0, 4776.0, 4774.0, 4778.0, 4776.0, 4776.0, 4772.0, 4752.0, 4774.0, 4776.0, 4774.0, 4774.0, 4752.0, 4776.0, 4776.0, 4776.0, 4776.0, 4754.0, 4776.0, 4774.0, 4754.0, 4750.0, 4774.0, 4774.0, 4778.0, 4750.0, 4774.0, 4776.0, 4750.0, 4776.0, 4776.0, 4752.0, 4752.0, 4754.0, 4774.0],
      "WindowWidth": [18566.0, 18530.0, 18568.0, 18566.0, 18566.0, 18536.0, 18566.0, 18534.0, 18568.0, 18562.0, 18566.0, 18532.0, 18564.0, 18536.0, 18536.0, 18566.0, 18572.0, 18564.0, 18534.0, 18534.0, 18566.0, 18562.0, 18562.0, 18562.0, 18570.0, 18534.0, 18564.0, 18536.0, 18562.0, 18566.0, 18568.0, 18564.0, 18572.0, 18530.0, 18564.0, 18562.0, 18534.0, 18532.0, 18566.0, 18562.0, 18534.0, 18566.0, 18564.0, 18562.0, 18564.0, 18562.0, 18564.0, 18570.0, 18538.0, 18566.0, 18568.0, 18566.0, 18534.0, 18532.0, 18560.0, 18568.0, 18564.0, 18570.0, 18560.0, 18564.0, 18566.0, 18568.0, 18530.0, 18534.0, 18562.0, 18534.0, 18568.0, 18570.0, 18564.0, 18564.0, 18562.0, 18530.0, 18558.0, 18534.0, 18564.0, 18566.0, 18560.0, 18564.0, 18568.0, 18568.0, 18528.0, 18562.0, 18536.0, 18568.0, 18564.0, 18568.0, 18560.0, 18534.0, 18564.0, 18566.0, 18560.0, 18562.0, 18530.0, 18528.0, 18532.0, 18564.0, 18572.0, 18566.0, 18570.0, 18566.0, 18532.0, 18570.0, 18536.0, 18574.0, 18564.0, 18568.0, 18566.0, 18532.0, 18562.0, 18564.0, 18562.0, 18568.0, 18560.0, 18568.0, 18558.0, 18564.0, 18562.0, 18564.0, 18568.0, 18560.0, 18568.0, 18568.0, 18560.0, 18562.0, 18532.0, 18534.0, 18532.0, 18568.0, 18566.0, 18534.0, 18560.0, 18566.0, 18566.0, 18568.0, 18562.0, 18532.0, 18566.0, 18560.0, 18562.0, 18534.0, 18570.0, 18564.0, 18532.0, 18564.0, 18566.0, 18566.0, 18562.0, 18530.0, 18568.0, 18564.0, 18530.0, 18570.0, 18532.0, 18566.0, 18568.0, 18532.0, 18564.0, 18528.0, 18564.0, 18562.0, 18572.0, 18564.0, 18532.0, 18560.0, 18534.0, 18564.0, 18568.0, 18564.0, 18570.0, 18564.0, 18568.0, 18568.0, 18566.0, 18562.0, 18530.0, 18564.0, 18564.0, 18564.0, 18560.0, 18532.0, 18566.0, 18566.0, 18568.0, 18566.0, 18536.0, 18564.0, 18562.0, 18532.0, 18532.0, 18564.0, 18560.0, 18566.0, 18530.0, 18566.0, 18568.0, 18532.0, 18566.0, 18564.0, 18532.0, 18536.0, 18536.0, 18566.0]
    },
    "slices": {}
  }
}