{
  "AcquisitionMatrixPE": 104,
  "AcquisitionNumber": 1,
  "AcquisitionTime": "16:08:29.230000",
  "BandwidthPerPixelPhaseEncode": 17.17,
  "BaseResolution": 104,
  "BodyPartExamined": "BRAIN",
  "CoilString": "HC1-7;NC1_2",
  "ConsistencyInfo": "N4_VE11C_LATEST_20160120",
  "ConversionSoftware": "dcm2niix",
  "ConversionSoftwareVersion": "v1.0.20190902",
  "DerivedVendorReportedEchoSpacing": 0.000560011,
  "DeviceSerialNumber": "167006",
  "DwellTime": 2.1e-06,
  "EchoTime": 0.037,
  "EchoTrainLength": 104,
  "EffectiveEchoSpacing": 0.000560011,
  "FlipAngle": 52,
  "ImageComments": "Unaliased_MB4_PE3_LB",
  "ImageOrientationPatientDICOM": [0.999096, -0.0317195, 0.0282983, 0.0390799, 0.947317, -0.317905],
  "ImageType": [
    "ORIGINAL",
    "PRIMARY",
    "M",
    "MB",
    "ND",
    "MOSAIC"
],
  "ImagingFrequency": 123.259,
  "InPlanePhaseEncodingDirectionDICOM": "COL",
  "InstitutionAddress": "Chemin_Queen-Mary_4565_Montreal_District_CA_H3W_1W5",
  "InstitutionName": "IUGM",
  "InstitutionalDepartmentName": "Department",
  "MRAcquisitionType": "2D",
  "MagneticFieldStrength": 3,
  "Manufacturer": "Siemens",
  "ManufacturersModelName": "Prisma_fit",
  "Modality": "MR",
  "MultibandAccelerationFactor": 4,
  "PartialFourier": 1,
  "PatientPosition": "HFS",
  "PercentPhaseFOV": 100,
  "PhaseEncodingDirection": "j",
  "PhaseEncodingSteps": 104,
  "PhaseResolution": 1,
  "PixelBandwidth": 2290,
  "ProcedureStepDescription": "localizers_retinotopy",
  "ProtocolName": "func_task-wedges",
  "PulseSequenceDetails": "%CustomerSeq%_cmrr_mbep2d_bold",
  "ReceiveCoilActiveElements": "HC1-7;NC1,2",
  "ReceiveCoilName": "HeadNeck_64",
  "ReconMatrixPE": 104,
  "RepetitionTime": 1.49,
  "SAR": 0.0314337,
  "ScanOptions": "FS",
  "ScanningSequence": "EP",
  "SequenceName": "epfid2d1_104",
  "SequenceVariant": "SK_SS",
  "SeriesDescription": "func_task-wedges",
  "SeriesNumber": 10,
  "ShimSetting": [631, -7289, -8827, 597, -6, -299, 67, -12],
  "SliceThickness": 2,
  "SliceTiming": [0, 0.785, 0.1, 0.8825, 0.1975, 0.98, 0.295, 1.08, 0.3925, 1.1775, 0.49, 1.275, 0.59, 1.3725, 0.6875, 0, 0.785, 0.1, 0.8825, 0.1975, 0.98, 0.295, 1.08, 0.3925, 1.1775, 0.49, 1.275, 0.59, 1.3725, 0.6875, 0, 0.785, 0.1, 0.8825, 0.1975, 0.98, 0.295, 1.08, 0.3925, 1.1775, 0.49, 1.275, 0.59, 1.3725, 0.6875, 0, 0.785, 0.1, 0.8825, 0.1975, 0.98, 0.295, 1.08, 0.3925, 1.1775, 0.49, 1.275, 0.59, 1.3725, 0.6875],
  "SoftwareVersions": "syngo_MR_E11",
  "SpacingBetweenSlices": 2,
  "StationName": "MRC35049",
  "TaskName": "wedges",
  "TotalReadoutTime": 0.0576811,
  "TxRefAmp": 220.036,
  "WipMemBlock": "b9dd565c-da72-4791-93c5-6921f315beb1||Sequence: R016 ve11c/master r/e634e98; Dec 19 2017 11:00:25 by eja",
  "dcmmeta_affine": [
    [-1.998192310333252, 0.07815981656312943, 0.03344743698835373, 102.1299819946289],
    [0.06343898922204971, 1.8946340084075928, -0.6374462246894836, -69.43439483642578],
    [0.05659666284918785, 0.6358091235160828, 1.8954006433486938, -61.39332580566406],
    [0.0, 0.0, 0.0, 1.0]
],
  "dcmmeta_reorient_transform": [
    [0.0, -1.0, 0.0, 103.0],
    [1.0, 0.0, 0.0, 0.0],
    [0.0, 0.0, 1.0, 0.0],
    [0.0, 0.0, 0.0, 1.0]
],
  "dcmmeta_shape": [104, 104, 60, 202],
  "dcmmeta_slice_dim": 2,
  "dcmmeta_version": 0.6,
  "global": {
    "const": {
      "AcquisitionMatrix": [104, 0, 0, 104],
      "AngioFlag": "N",
      "BitsAllocated": 16,
      "BitsStored": 16,
      "BodyPartExamined": "BRAIN",
      "Columns": 832,
      "EchoNumbers": 1,
      "EchoTime": 37.0,
      "EchoTrainLength": 104,
      "FlipAngle": 52.0,
      "HighBit": 15,
      "ImageOrientationPatient": [0.99909613056123, -0.0317194940061, 0.02829833206341, 0.03907990691121, 0.94731697799613, -0.3179045518329],
      "ImagePositionPatient": [-865.97259863697, -792.26786748291, 214.92834034811],
      "ImageType": [
        "ORIGINAL",
        "PRIMARY",
        "M",
        "MB",
        "ND",
        "MOSAIC"
],
      "ImagedNucleus": "1H",
      "ImagingFrequency": 123.258939,
      "InPlanePhaseEncodingDirection": "COL",
      "MRAcquisitionType": "2D",
      "MagneticFieldStrength": 3.0,
      "Manufacturer": "SIEMENS",
      "ManufacturerModelName": "Prisma_fit",
      "Modality": "MR",
      "NumberOfAverages": 1.0,
      "NumberOfPhaseEncodingSteps": 104,
      "PercentPhaseFieldOfView": 100.0,
      "PercentSampling": 100.0,
      "PerformedProcedureStepStartTime": "160502.625000",
      "PhotometricInterpretation": "MONOCHROME2",
      "PixelBandwidth": 2290.0,
      "PixelRepresentation": 0,
      "PixelSpacing": [2.0, 2.0],
      "ProtocolName": "func_task-wedges",
      "RepetitionTime": 1490.0,
      "Rows": 832,
      "SAR": 0.0314336648166,
      "SamplesPerPixel": 1,
      "ScanOptions": "FS",
      "ScanningSequence": "EP",
      "SequenceName": "epfid2d1_104",
      "SequenceVariant": [
        "SK",
        "SS"
],
      "SeriesDescription": "func_task-wedges",
      "SeriesNumber": 10,
      "SeriesTime": "160957.432000",
      "SliceLocation": -34.34413411211,
      "SliceThickness": 2.0,
      "SmallestImagePixelValue": 0,
      "SoftwareVersions": "syngo MR E11",
      "SpacingBetweenSlices": 2.0000000067437,
      "SpecificCharacterSet": "ISO_IR 100",
      "StudyID": "1",
      "StudyTime": "160502.560000",
      "TransmitCoilName": "Body",
      "VariableFlipAngleFlag": "N",
      "WindowCenterWidthExplanation": "Algo1",
      "dBdt": 0.0},
    "slices": {}
  },
  "time": {
    "samples": {
      "AcquisitionNumber": [1, 2, 3, 4, 5, 6, 7, 8, 9, 10, 11, 12, 13, 14, 15, 16, 17, 18, 19, 20, 21, 22, 23, 24, 25, 26, 27, 28, 29, 30, 31, 32, 33, 34, 35, 36, 37, 38, 39, 40, 41, 42, 43, 44, 45, 46, 47, 48, 49, 50, 51, 52, 53, 54, 55, 56, 57, 58, 59, 60, 61, 62, 63, 64, 65, 66, 67, 68, 69, 70, 71, 72, 73, 74, 75, 76, 77, 78, 79, 80, 81, 82, 83, 84, 85, 86, 87, 88, 89, 90, 91, 92, 93, 94, 95, 96, 97, 98, 99, 100, 101, 102, 103, 104, 105, 106, 107, 108, 109, 110, 111, 112, 113, 114, 115, 116, 117, 118, 119, 120, 121, 122, 123, 124, 125, 126, 127, 128, 129, 130, 131, 132, 133, 134, 135, 136, 137, 138, 139, 140, 141, 142, 143, 144, 145, 146, 147, 148, 149, 150, 151, 152, 153, 154, 155, 156, 157, 158, 159, 160, 161, 162, 163, 164, 165, 166, 167, 168, 169, 170, 171, 172, 173, 174, 175, 176, 177, 178, 179, 180, 181, 182, 183, 184, 185, 186, 187, 188, 189, 190, 191, 192, 193, 194, 195, 196, 197, 198, 199, 200, 201, 202],
      "AcquisitionTime": ["160829.230000", "160830.720000", "160832.210000", "160833.700000", "160835.190000", "160836.680000", "160838.170000", "160839.660000", "160841.150000", "160842.640000", "160844.130000", "160845.620000", "160847.110000", "160848.600000", "160850.090000", "160851.580000", "160853.070000", "160854.560000", "160856.050000", "160857.540000", "160859.030000", "160900.520000", "160902.010000", "160903.500000", "160904.990000", "160906.480000", "160907.970000", "160909.460000", "160910.950000", "160912.440000", "160913.930000", "160915.420000", "160916.910000", "160918.400000", "160919.890000", "160921.380000", "160922.870000", "160924.360000", "160925.850000", "160927.340000", "160928.830000", "160930.320000", "160931.810000", "160933.300000", "160934.790000", "160936.280000", "160937.770000", "160939.260000", "160940.750000", "160942.240000", "160943.730000", "160945.220000", "160946.710000", "160948.200000", "160949.690000", "160951.180000", "160952.670000", "160954.160000", "160955.650000", "160957.140000", "160958.630000", "161000.120000", "161001.610000", "161003.100000", "161004.590000", "161006.080000", "161007.570000", "161009.060000", "161010.550000", "161012.040000", "161013.530000", "161015.020000", "161016.510000", "161018.000000", "161019.490000", "161020.980000", "161022.470000", "161023.960000", "161025.450000", "161026.940000", "161028.430000", "161029.920000", "161031.410000", "161032.900000", "161034.390000", "161035.880000", "161037.370000", "161038.860000", "161040.350000", "161041.840000", "161043.330000", "161044.820000", "161046.310000", "161047.800000", "161049.290000", "161050.780000", "161052.270000", "161053.760000", "161055.250000", "161056.740000", "161058.230000", "161059.720000", "161101.210000", "161102.700000", "161104.190000", "161105.680000", "161107.170000", "161108.660000", "161110.150000", "161111.640000", "161113.130000", "161114.620000", "161116.110000", "161117.600000", "161119.090000", "161120.580000", "161122.070000", "161123.560000", "161125.050000", "161126.540000", "161128.030000", "161129.520000", "161131.010000", "161132.500000", "161133.990000", "161135.480000", "161136.970000", "161138.460000", "161139.950000", "161141.440000", "161142.930000", "161144.420000", "161145.910000", "161147.400000", "161148.890000", "161150.380000", "161151.870000", "161153.360000", "161154.850000", "161156.340000", "161157.830000", "161159.320000", "161200.810000", "161202.300000", "161203.790000", "161205.280000", "161206.770000", "161208.260000", "161209.750000", "161211.240000", "161212.730000", "161214.220000", "161215.710000", "161217.200000", "161218.690000", "161220.180000", "161221.670000", "161223.160000", "161224.650000", "161226.140000", "161227.630000", "161229.120000", "161230.610000", "161232.100000", "161233.590000", "161235.080000", "161236.570000", "161238.060000", "161239.550000", "161241.040000", "161242.530000", "161244.020000", "161245.510000", "161247.000000", "161248.490000", "161249.980000", "161251.470000", "161252.960000", "161254.450000", "161255.940000", "161257.430000", "161258.920000", "161300.410000", "161301.900000", "161303.390000", "161304.880000", "161306.370000", "161307.860000", "161309.350000", "161310.840000", "161312.330000", "161313.820000", "161315.310000", "161316.800000", "161318.290000", "161319.780000", "161321.270000", "161322.760000", "161324.250000", "161325.740000", "161327.230000", "161328.720000"],
      "ContentTime": ["160957.435000", "160957.439000", "160957.442000", "160957.446000", "160957.449000", "160957.453000", "160957.457000", "160957.460000", "160957.463000", "160957.467000", "160957.470000", "160957.474000", "160957.477000", "160957.481000", "160957.484000", "160957.488000", "160957.491000", "160957.494000", "160957.498000", "160957.501000", "160957.505000", "160957.508000", "160957.512000", "160957.515000", "160957.518000", "160957.522000", "160957.525000", "160957.529000", "160957.532000", "160957.536000", "160957.539000", "160957.543000", "160957.546000", "161017.390000", "161017.394000", "161017.398000", "161017.401000", "161017.404000", "161017.408000", "161017.411000", "161017.415000", "161017.418000", "161017.421000", "161017.425000", "161017.428000", "161017.432000", "161017.435000", "161017.439000", "161017.442000", "161017.446000", "161017.449000", "161017.453000", "161017.456000", "161037.390000", "161037.394000", "161037.398000", "161037.401000", "161037.405000", "161037.408000", "161037.412000", "161037.416000", "161037.419000", "161037.423000", "161037.426000", "161037.430000", "161037.440000", "161037.444000", "161037.448000", "161037.451000", "161037.455000", "161037.459000", "161037.462000", "161037.466000", "161037.470000", "161057.390000", "161057.394000", "161057.398000", "161057.401000", "161057.405000", "161057.408000", "161057.411000", "161057.415000", "161057.419000", "161057.422000", "161057.426000", "161057.429000", "161057.433000", "161057.436000", "161057.440000", "161057.443000", "161057.447000", "161057.450000", "161057.454000", "161057.457000", "161137.389000", "161137.393000", "161137.396000", "161137.400000", "161137.403000", "161137.407000", "161137.410000", "161137.414000", "161137.417000", "161137.421000", "161137.424000", "161137.427000", "161137.431000", "161137.434000", "161137.438000", "161137.441000", "161137.445000", "161137.448000", "161137.452000", "161137.455000", "161137.459000", "161137.462000", "161137.465000", "161137.469000", "161137.472000", "161137.476000", "161137.479000", "161137.483000", "161137.486000", "161137.489000", "161137.493000", "161217.390000", "161217.394000", "161217.398000", "161217.401000", "161217.404000", "161217.408000", "161217.411000", "161217.415000", "161217.418000", "161217.422000", "161217.425000", "161217.429000", "161217.432000", "161217.435000", "161217.442000", "161217.446000", "161217.449000", "161217.453000", "161217.456000", "161217.460000", "161217.463000", "161217.466000", "161217.470000", "161217.473000", "161217.477000", "161217.480000", "161217.484000", "161257.390000", "161257.394000", "161257.398000", "161257.412000", "161257.416000", "161257.419000", "161257.423000", "161257.426000", "161257.430000", "161257.433000", "161257.437000", "161257.440000", "161257.444000", "161257.447000", "161257.451000", "161257.454000", "161257.458000", "161257.461000", "161257.465000", "161257.468000", "161257.472000", "161257.475000", "161257.479000", "161257.482000", "161257.485000", "161257.489000", "161257.492000", "161331.178000", "161331.182000", "161331.186000", "161331.190000", "161331.193000", "161331.197000", "161331.201000", "161331.204000", "161331.207000", "161331.211000", "161331.215000", "161331.218000", "161331.221000", "161331.225000", "161331.228000", "161331.232000", "161331.235000", "161331.239000", "161331.242000", "161331.246000", "161331.249000", "161331.252000", "161331.256000"],
      "InstanceCreationTime": ["160957.435000", "160957.439000", "160957.442000", "160957.446000", "160957.449000", "160957.453000", "160957.457000", "160957.460000", "160957.463000", "160957.467000", "160957.470000", "160957.474000", "160957.477000", "160957.481000", "160957.484000", "160957.488000", "160957.491000", "160957.494000", "160957.498000", "160957.501000", "160957.505000", "160957.508000", "160957.512000", "160957.515000", "160957.518000", "160957.522000", "160957.525000", "160957.529000", "160957.532000", "160957.536000", "160957.539000", "160957.543000", "160957.546000", "161017.390000", "161017.394000", "161017.398000", "161017.401000", "161017.404000", "161017.408000", "161017.411000", "161017.415000", "161017.418000", "161017.421000", "161017.425000", "161017.428000", "161017.432000", "161017.435000", "161017.439000", "161017.442000", "161017.446000", "161017.449000", "161017.453000", "161017.456000", "161037.390000", "161037.394000", "161037.398000", "161037.401000", "161037.405000", "161037.408000", "161037.412000", "161037.416000", "161037.419000", "161037.423000", "161037.426000", "161037.430000", "161037.440000", "161037.444000", "161037.448000", "161037.451000", "161037.455000", "161037.459000", "161037.462000", "161037.466000", "161037.470000", "161057.390000", "161057.394000", "161057.398000", "161057.401000", "161057.405000", "161057.408000", "161057.411000", "161057.415000", "161057.419000", "161057.422000", "161057.426000", "161057.429000", "161057.433000", "161057.436000", "161057.440000", "161057.443000", "161057.447000", "161057.450000", "161057.454000", "161057.457000", "161137.389000", "161137.393000", "161137.396000", "161137.400000", "161137.403000", "161137.407000", "161137.410000", "161137.414000", "161137.417000", "161137.421000", "161137.424000", "161137.427000", "161137.431000", "161137.434000", "161137.438000", "161137.441000", "161137.445000", "161137.448000", "161137.452000", "161137.455000", "161137.459000", "161137.462000", "161137.465000", "161137.469000", "161137.472000", "161137.476000", "161137.479000", "161137.483000", "161137.486000", "161137.489000", "161137.493000", "161217.390000", "161217.394000", "161217.398000", "161217.401000", "161217.404000", "161217.408000", "161217.411000", "161217.415000", "161217.418000", "161217.422000", "161217.425000", "161217.429000", "161217.432000", "161217.435000", "161217.442000", "161217.446000", "161217.449000", "161217.453000", "161217.456000", "161217.460000", "161217.463000", "161217.466000", "161217.470000", "161217.473000", "161217.477000", "161217.480000", "161217.484000", "161257.390000", "161257.394000", "161257.398000", "161257.412000", "161257.416000", "161257.419000", "161257.423000", "161257.426000", "161257.430000", "161257.433000", "161257.437000", "161257.440000", "161257.444000", "161257.447000", "161257.451000", "161257.454000", "161257.458000", "161257.461000", "161257.465000", "161257.468000", "161257.472000", "161257.475000", "161257.479000", "161257.482000", "161257.485000", "161257.489000", "161257.492000", "161331.178000", "161331.182000", "161331.186000", "161331.190000", "161331.193000", "161331.197000", "161331.201000", "161331.204000", "161331.207000", "161331.211000", "161331.215000", "161331.218000", "161331.221000", "161331.225000", "161331.228000", "161331.232000", "161331.235000", "161331.239000", "161331.242000", "161331.246000", "161331.249000", "161331.252000", "161331.256000"],
      "InstanceNumber": [1, 2, 3, 4, 5, 6, 7, 8, 9, 10, 11, 12, 13, 14, 15, 16, 17, 18, 19, 20, 21, 22, 23, 24, 25, 26, 27, 28, 29, 30, 31, 32, 33, 34, 35, 36, 37, 38, 39, 40, 41, 42, 43, 44, 45, 46, 47, 48, 49, 50, 51, 52, 53, 54, 55, 56, 57, 58, 59, 60, 61, 62, 63, 64, 65, 66, 67, 68, 69, 70, 71, 72, 73, 74, 75, 76, 77, 78, 79, 80, 81, 82, 83, 84, 85, 86, 87, 88, 89, 90, 91, 92, 93, 94, 95, 96, 97, 98, 99, 100, 101, 102, 103, 104, 105, 106, 107, 108, 109, 110, 111, 112, 113, 114, 115, 116, 117, 118, 119, 120, 121, 122, 123, 124, 125, 126, 127, 128, 129, 130, 131, 132, 133, 134, 135, 136, 137, 138, 139, 140, 141, 142, 143, 144, 145, 146, 147, 148, 149, 150, 151, 152, 153, 154, 155, 156, 157, 158, 159, 160, 161, 162, 163, 164, 165, 166, 167, 168, 169, 170, 171, 172, 173, 174, 175, 176, 177, 178, 179, 180, 181, 182, 183, 184, 185, 186, 187, 188, 189, 190, 191, 192, 193, 194, 195, 196, 197, 198, 199, 200, 201, 202],
      "LargestImagePixelValue": [43714, 41825, 40805, 40560, 40507, 40225, 40130, 40034, 39990, 39762, 40045, 40101, 40100, 40279, 40075, 41467, 41108, 39629, 40889, 41194, 40951, 41158, 40572, 41319, 40177, 40804, 40851, 40321, 40656, 40222, 40559, 40775, 41433, 40765, 41136, 40800, 41238, 41081, 41385, 40888, 40438, 40627, 40447, 40176, 40184, 40332, 41058, 40538, 40009, 40697, 40518, 39749, 40186, 40791, 40987, 40722, 40564, 40686, 40747, 40935, 40447, 40555, 40597, 40525, 39328, 38892, 39487, 39773, 39646, 39726, 39692, 41574, 41246, 41121, 41565, 41374, 41038, 37817, 39971, 38933, 38685, 39232, 39544, 40338, 40032, 39461, 39833, 39731, 38546, 38217, 39026, 39107, 39192, 39099, 38505, 38514, 38173, 39993, 41028, 40282, 39869, 39233, 39236, 39164, 38769, 38223, 38532, 38853, 38441, 38886, 38776, 39410, 38490, 39154, 38395, 38346, 37438, 38198, 38242, 39130, 38896, 38967, 40231, 38396, 38647, 39654, 39194, 39358, 39776, 38441, 39759, 40320, 40385, 40361, 40744, 40903, 40178, 39875, 40153, 40641, 40136, 38925, 38567, 40331, 39317, 40301, 38300, 39304, 39584, 39496, 39891, 39840, 38847, 40098, 40240, 39935, 39133, 39603, 40252, 39729, 39433, 38504, 37913, 37934, 39734, 39272, 39123, 40206, 38957, 38540, 37904, 37862, 37351, 37993, 38551, 39093, 37371, 38445, 38611, 38139, 39385, 39341, 40556, 37947, 37994, 39512, 40043, 38556, 38996, 41095, 41766, 39942, 40300, 40230, 40570, 41271, 41141, 41538, 41792, 41370, 40902, 41069],
      "WindowCenter": [10338.0, 10268.0, 10228.0, 10198.0, 10203.0, 10235.0, 10271.0, 10272.0, 10241.0, 10210.0, 10213.0, 10250.0, 10275.0, 10270.0, 10240.0, 10250.0, 10246.0, 10237.0, 10254.0, 10258.0, 10245.0, 10250.0, 10236.0, 10282.0, 10244.0, 10237.0, 10251.0, 10242.0, 10245.0, 10244.0, 10260.0, 10260.0, 10251.0, 10238.0, 10235.0, 10224.0, 10229.0, 10238.0, 10230.0, 10235.0, 10231.0, 10229.0, 10210.0, 10210.0, 10237.0, 10260.0, 10234.0, 10202.0, 10202.0, 10205.0, 10224.0, 10228.0, 10215.0, 10192.0, 10191.0, 10237.0, 10281.0, 10261.0, 10209.0, 10203.0, 10221.0, 10216.0, 10196.0, 10206.0, 10223.0, 10239.0, 10209.0, 10184.0, 10197.0, 10208.0, 10173.0, 10174.0, 10170.0, 10221.0, 10224.0, 10198.0, 10166.0, 10115.0, 10210.0, 10235.0, 10220.0, 10181.0, 10179.0, 10202.0, 10195.0, 10157.0, 10144.0, 10135.0, 10145.0, 10124.0, 10157.0, 10166.0, 10151.0, 10090.0, 10159.0, 10146.0, 10185.0, 10254.0, 10250.0, 10226.0, 10203.0, 10193.0, 10187.0, 10168.0, 10151.0, 10168.0, 10175.0, 10162.0, 10142.0, 10142.0, 10153.0, 10160.0, 10133.0, 10132.0, 10141.0, 10147.0, 10137.0, 10142.0, 10157.0, 10167.0, 10174.0, 10164.0, 10242.0, 10191.0, 10200.0, 10194.0, 10169.0, 10141.0, 10133.0, 10138.0, 10162.0, 10150.0, 10138.0, 10136.0, 10149.0, 10163.0, 10165.0, 10167.0, 10166.0, 10163.0, 10160.0, 10175.0, 10176.0, 10212.0, 10207.0, 10199.0, 10162.0, 10188.0, 10175.0, 10133.0, 10112.0, 10120.0, 10181.0, 10218.0, 10173.0, 10136.0, 10117.0, 10111.0, 10114.0, 10137.0, 10168.0, 10148.0, 10112.0, 10093.0, 10134.0, 10168.0, 10177.0, 10191.0, 10157.0, 10108.0, 10084.0, 10092.0, 10099.0, 10129.0, 10132.0, 10108.0, 10082.0, 10125.0, 10142.0, 10112.0, 10111.0, 10112.0, 10179.0, 10181.0, 10155.0, 10116.0, 10138.0, 10084.0, 10080.0, 10142.0, 10267.0, 10241.0, 10205.0, 10164.0, 10140.0, 10141.0, 10146.0, 10152.0, 10155.0, 10127.0, 10140.0, 10143.0],
      "WindowWidth": [22358.0, 22162.0, 22049.0, 21965.0, 21966.0, 22034.0, 22115.0, 22120.0, 22046.0, 21976.0, 21980.0, 22067.0, 22123.0, 22110.0, 22043.0, 22059.0, 22053.0, 22043.0, 22075.0, 22085.0, 22055.0, 22064.0, 22033.0, 22142.0, 22049.0, 22030.0, 22059.0, 22046.0, 22056.0, 22043.0, 22074.0, 22075.0, 22056.0, 22025.0, 22017.0, 21991.0, 21996.0, 22018.0, 22006.0, 22015.0, 22006.0, 21998.0, 21956.0, 21959.0, 22015.0, 22069.0, 22006.0, 21930.0, 21932.0, 21938.0, 21979.0, 21987.0, 21959.0, 21904.0, 21898.0, 22002.0, 22106.0, 22067.0, 21940.0, 21921.0, 21966.0, 21958.0, 21909.0, 21933.0, 21988.0, 22036.0, 21953.0, 21891.0, 21909.0, 21935.0, 21857.0, 21853.0, 21836.0, 21958.0, 21968.0, 21909.0, 21831.0, 21750.0, 21963.0, 22018.0, 21981.0, 21887.0, 21869.0, 21917.0, 21901.0, 21817.0, 21781.0, 21762.0, 21798.0, 21731.0, 21826.0, 21827.0, 21797.0, 21665.0, 21849.0, 21793.0, 21883.0, 22046.0, 22040.0, 21984.0, 21931.0, 21916.0, 21909.0, 21868.0, 21825.0, 21866.0, 21886.0, 21856.0, 21809.0, 21809.0, 21836.0, 21853.0, 21791.0, 21786.0, 21811.0, 21819.0, 21803.0, 21804.0, 21836.0, 21857.0, 21869.0, 21850.0, 22039.0, 21910.0, 21924.0, 21904.0, 21854.0, 21788.0, 21768.0, 21788.0, 21825.0, 21797.0, 21764.0, 21761.0, 21792.0, 21822.0, 21829.0, 21833.0, 21829.0, 21818.0, 21816.0, 21852.0, 21849.0, 21943.0, 21922.0, 21899.0, 21818.0, 21873.0, 21845.0, 21748.0, 21695.0, 21712.0, 21851.0, 21934.0, 21834.0, 21747.0, 21711.0, 21693.0, 21694.0, 21744.0, 21823.0, 21803.0, 21719.0, 21673.0, 21746.0, 21819.0, 21838.0, 21867.0, 21796.0, 21692.0, 21663.0, 21660.0, 21668.0, 21728.0, 21735.0, 21674.0, 21630.0, 21713.0, 21749.0, 21689.0, 21681.0, 21679.0, 21845.0, 21858.0, 21790.0, 21678.0, 21737.0, 21612.0, 21621.0, 21749.0, 22069.0, 22014.0, 21937.0, 21843.0, 21794.0, 21791.0, 21805.0, 21815.0, 21830.0, 21766.0, 21799.0, 21803.0]
    },
    "slices": {}
  }
}