{
  "AcquisitionMatrixPE": 104,
  "AcquisitionNumber": 1,
  "AcquisitionTime": "16:08:29.230000",
  "BandwidthPerPixelPhaseEncode": 17.17,
  "BaseResolution": 104,
  "BodyPartExamined": "BRAIN",
  "CoilString": "HC1-7;NC1_2",
  "ConsistencyInfo": "N4_VE11C_LATEST_20160120",
  "ConversionSoftware": "dcm2niix",
  "ConversionSoftwareVersion": "v1.0.20190902",
  "DerivedVendorReportedEchoSpacing": 0.000560011,
  "DeviceSerialNumber": "167006",
  "DwellTime": 2.1e-06,
  "EchoTime": 0.037,
  "EchoTrainLength": 104,
  "EffectiveEchoSpacing": 0.000560011,
  "FlipAngle": 52,
  "ImageComments": "Unaliased_MB4_PE3_LB",
  "ImageOrientationPatientDICOM": [0.999096, -0.0317195, 0.0282983, 0.0390799, 0.947317, -0.317905],
  "ImageType": [
    "ORIGINAL",
    "PRIMARY",
    "P",
    "MB",
    "ND",
    "MOSAIC"
],
  "ImagingFrequency": 123.259,
  "InPlanePhaseEncodingDirectionDICOM": "COL",
  "InstitutionAddress": "Chemin_Queen-Mary_4565_Montreal_District_CA_H3W_1W5",
  "InstitutionName": "IUGM",
  "InstitutionalDepartmentName": "Department",
  "MRAcquisitionType": "2D",
  "MagneticFieldStrength": 3,
  "Manufacturer": "Siemens",
  "ManufacturersModelName": "Prisma_fit",
  "Modality": "MR",
  "MultibandAccelerationFactor": 4,
  "PartialFourier": 1,
  "PatientPosition": "HFS",
  "PercentPhaseFOV": 100,
  "PhaseEncodingDirection": "j",
  "PhaseEncodingSteps": 104,
  "PhaseResolution": 1,
  "PixelBandwidth": 2290,
  "ProcedureStepDescription": "localizers_retinotopy",
  "ProtocolName": "func_task-wedges",
  "PulseSequenceDetails": "%CustomerSeq%_cmrr_mbep2d_bold",
  "ReceiveCoilActiveElements": "HC1-7;NC1,2",
  "ReceiveCoilName": "HeadNeck_64",
  "ReconMatrixPE": 104,
  "RepetitionTime": 1.49,
  "SAR": 0.0314337,
  "ScanOptions": "FS",
  "ScanningSequence": "EP",
  "SequenceName": "epfid2d1_104",
  "SequenceVariant": "SK_SS",
  "SeriesDescription": "func_task-wedges",
  "SeriesNumber": 11,
  "ShimSetting": [631, -7289, -8827, 597, -6, -299, 67, -12],
  "SliceThickness": 2,
  "SliceTiming": [0, 0.785, 0.1, 0.8825, 0.1975, 0.98, 0.295, 1.08, 0.3925, 1.1775, 0.49, 1.275, 0.59, 1.3725, 0.6875, 0, 0.785, 0.1, 0.8825, 0.1975, 0.98, 0.295, 1.08, 0.3925, 1.1775, 0.49, 1.275, 0.59, 1.3725, 0.6875, 0, 0.785, 0.1, 0.8825, 0.1975, 0.98, 0.295, 1.08, 0.3925, 1.1775, 0.49, 1.275, 0.59, 1.3725, 0.6875, 0, 0.785, 0.1, 0.8825, 0.1975, 0.98, 0.295, 1.08, 0.3925, 1.1775, 0.49, 1.275, 0.59, 1.3725, 0.6875],
  "SoftwareVersions": "syngo_MR_E11",
  "SpacingBetweenSlices": 2,
  "StationName": "MRC35049",
  "TaskName": "wedges",
  "TotalReadoutTime": 0.0576811,
  "TxRefAmp": 220.036,
  "WipMemBlock": "b9dd565c-da72-4791-93c5-6921f315beb1||Sequence: R016 ve11c/master r/e634e98; Dec 19 2017 11:00:25 by eja",
  "dcmmeta_affine": [
    [-1.998192310333252, 0.07815981656312943, 0.03344743698835373, 102.1299819946289],
    [0.06343898922204971, 1.8946340084075928, -0.6374462246894836, -69.43439483642578],
    [0.05659666284918785, 0.6358091235160828, 1.8954006433486938, -61.39332580566406],
    [0.0, 0.0, 0.0, 1.0]
],
  "dcmmeta_reorient_transform": [
    [0.0, -1.0, 0.0, 103.0],
    [1.0, 0.0, 0.0, 0.0],
    [0.0, 0.0, 1.0, 0.0],
    [0.0, 0.0, 0.0, 1.0]
],
  "dcmmeta_shape": [104, 104, 60, 202],
  "dcmmeta_slice_dim": 2,
  "dcmmeta_version": 0.6,
  "global": {
    "const": {
      "AcquisitionMatrix": [104, 0, 0, 104],
      "AngioFlag": "N",
      "BitsAllocated": 16,
      "BitsStored": 16,
      "BodyPartExamined": "BRAIN",
      "Columns": 832,
      "EchoNumbers": 1,
      "EchoTime": 37.0,
      "EchoTrainLength": 104,
      "FlipAngle": 52.0,
      "HighBit": 15,
      "ImageOrientationPatient": [0.99909613056123, -0.0317194940061, 0.02829833206341, 0.03907990691121, 0.94731697799613, -0.3179045518329],
      "ImagePositionPatient": [-865.97259863697, -792.26786748291, 214.92834034811],
      "ImageType": [
        "ORIGINAL",
        "PRIMARY",
        "P",
        "MB",
        "ND",
        "MOSAIC"
],
      "ImagedNucleus": "1H",
      "ImagingFrequency": 123.258939,
      "InPlanePhaseEncodingDirection": "COL",
      "LargestImagePixelValue": 4095,
      "MRAcquisitionType": "2D",
      "MagneticFieldStrength": 3.0,
      "Manufacturer": "SIEMENS",
      "ManufacturerModelName": "Prisma_fit",
      "Modality": "MR",
      "NumberOfAverages": 1.0,
      "NumberOfPhaseEncodingSteps": 104,
      "PercentPhaseFieldOfView": 100.0,
      "PercentSampling": 100.0,
      "PerformedProcedureStepStartTime": "160502.625000",
      "PhotometricInterpretation": "MONOCHROME2",
      "PixelBandwidth": 2290.0,
      "PixelRepresentation": 0,
      "PixelSpacing": [2.0, 2.0],
      "ProtocolName": "func_task-wedges",
      "RepetitionTime": 1490.0,
      "RescaleIntercept": -4096.0,
      "RescaleSlope": 2.0,
      "RescaleType": "US",
      "Rows": 832,
      "SAR": 0.0314336648166,
      "SamplesPerPixel": 1,
      "ScanOptions": "FS",
      "ScanningSequence": "EP",
      "SequenceName": "epfid2d1_104",
      "SequenceVariant": [
        "SK",
        "SS"
],
      "SeriesDescription": "func_task-wedges",
      "SeriesNumber": 11,
      "SeriesTime": "160957.603000",
      "SliceLocation": -34.34413411211,
      "SliceThickness": 2.0,
      "SmallestImagePixelValue": 0,
      "SoftwareVersions": "syngo MR E11",
      "SpacingBetweenSlices": 2.0000000067437,
      "SpecificCharacterSet": "ISO_IR 100",
      "StudyID": "1",
      "StudyTime": "160502.560000",
      "TransmitCoilName": "Body",
      "VariableFlipAngleFlag": "N",
      "WindowCenterWidthExplanation": "Algo1",
      "dBdt": 0.0},
    "slices": {}
  },
  "time": {
    "samples": {
      "AcquisitionNumber": [1, 2, 3, 4, 5, 6, 7, 8, 9, 10, 11, 12, 13, 14, 15, 16, 17, 18, 19, 20, 21, 22, 23, 24, 25, 26, 27, 28, 29, 30, 31, 32, 33, 34, 35, 36, 37, 38, 39, 40, 41, 42, 43, 44, 45, 46, 47, 48, 49, 50, 51, 52, 53, 54, 55, 56, 57, 58, 59, 60, 61, 62, 63, 64, 65, 66, 67, 68, 69, 70, 71, 72, 73, 74, 75, 76, 77, 78, 79, 80, 81, 82, 83, 84, 85, 86, 87, 88, 89, 90, 91, 92, 93, 94, 95, 96, 97, 98, 99, 100, 101, 102, 103, 104, 105, 106, 107, 108, 109, 110, 111, 112, 113, 114, 115, 116, 117, 118, 119, 120, 121, 122, 123, 124, 125, 126, 127, 128, 129, 130, 131, 132, 133, 134, 135, 136, 137, 138, 139, 140, 141, 142, 143, 144, 145, 146, 147, 148, 149, 150, 151, 152, 153, 154, 155, 156, 157, 158, 159, 160, 161, 162, 163, 164, 165, 166, 167, 168, 169, 170, 171, 172, 173, 174, 175, 176, 177, 178, 179, 180, 181, 182, 183, 184, 185, 186, 187, 188, 189, 190, 191, 192, 193, 194, 195, 196, 197, 198, 199, 200, 201, 202],
      "AcquisitionTime": ["160829.230000", "160830.720000", "160832.210000", "160833.700000", "160835.190000", "160836.680000", "160838.170000", "160839.660000", "160841.150000", "160842.640000", "160844.130000", "160845.620000", "160847.110000", "160848.600000", "160850.090000", "160851.580000", "160853.070000", "160854.560000", "160856.050000", "160857.540000", "160859.030000", "160900.520000", "160902.010000", "160903.500000", "160904.990000", "160906.480000", "160907.970000", "160909.460000", "160910.950000", "160912.440000", "160913.930000", "160915.420000", "160916.910000", "160918.400000", "160919.890000", "160921.380000", "160922.870000", "160924.360000", "160925.850000", "160927.340000", "160928.830000", "160930.320000", "160931.810000", "160933.300000", "160934.790000", "160936.280000", "160937.770000", "160939.260000", "160940.750000", "160942.240000", "160943.730000", "160945.220000", "160946.710000", "160948.200000", "160949.690000", "160951.180000", "160952.670000", "160954.160000", "160955.650000", "160957.140000", "160958.630000", "161000.120000", "161001.610000", "161003.100000", "161004.590000", "161006.080000", "161007.570000", "161009.060000", "161010.550000", "161012.040000", "161013.530000", "161015.020000", "161016.510000", "161018.000000", "161019.490000", "161020.980000", "161022.470000", "161023.960000", "161025.450000", "161026.940000", "161028.430000", "161029.920000", "161031.410000", "161032.900000", "161034.390000", "161035.880000", "161037.370000", "161038.860000", "161040.350000", "161041.840000", "161043.330000", "161044.820000", "161046.310000", "161047.800000", "161049.290000", "161050.780000", "161052.270000", "161053.760000", "161055.250000", "161056.740000", "161058.230000", "161059.720000", "161101.210000", "161102.700000", "161104.190000", "161105.680000", "161107.170000", "161108.660000", "161110.150000", "161111.640000", "161113.130000", "161114.620000", "161116.110000", "161117.600000", "161119.090000", "161120.580000", "161122.070000", "161123.560000", "161125.050000", "161126.540000", "161128.030000", "161129.520000", "161131.010000", "161132.500000", "161133.990000", "161135.480000", "161136.970000", "161138.460000", "161139.950000", "161141.440000", "161142.930000", "161144.420000", "161145.910000", "161147.400000", "161148.890000", "161150.380000", "161151.870000", "161153.360000", "161154.850000", "161156.340000", "161157.830000", "161159.320000", "161200.810000", "161202.300000", "161203.790000", "161205.280000", "161206.770000", "161208.260000", "161209.750000", "161211.240000", "161212.730000", "161214.220000", "161215.710000", "161217.200000", "161218.690000", "161220.180000", "161221.670000", "161223.160000", "161224.650000", "161226.140000", "161227.630000", "161229.120000", "161230.610000", "161232.100000", "161233.590000", "161235.080000", "161236.570000", "161238.060000", "161239.550000", "161241.040000", "161242.530000", "161244.020000", "161245.510000", "161247.000000", "161248.490000", "161249.980000", "161251.470000", "161252.960000", "161254.450000", "161255.940000", "161257.430000", "161258.920000", "161300.410000", "161301.900000", "161303.390000", "161304.880000", "161306.370000", "161307.860000", "161309.350000", "161310.840000", "161312.330000", "161313.820000", "161315.310000", "161316.800000", "161318.290000", "161319.780000", "161321.270000", "161322.760000", "161324.250000", "161325.740000", "161327.230000", "161328.720000"],
      "ContentTime": ["160957.605000", "160957.608000", "160957.611000", "160957.613000", "160957.616000", "160957.619000", "160957.621000", "160957.624000", "160957.627000", "160957.629000", "160957.632000", "160957.634000", "160957.637000", "160957.648000", "160957.650000", "160957.653000", "160957.656000", "160957.658000", "160957.661000", "160957.663000", "160957.666000", "160957.669000", "160957.671000", "160957.677000", "160957.680000", "160957.683000", "160957.685000", "160957.688000", "160957.690000", "160957.693000", "160957.695000", "160957.698000", "160957.701000", "161017.516000", "161017.519000", "161017.522000", "161017.524000", "161017.527000", "161017.530000", "161017.532000", "161017.535000", "161017.537000", "161017.540000", "161017.543000", "161017.545000", "161017.548000", "161017.550000", "161017.553000", "161017.556000", "161017.558000", "161017.561000", "161017.564000", "161017.566000", "161037.510000", "161037.513000", "161037.515000", "161037.518000", "161037.521000", "161037.523000", "161037.526000", "161037.529000", "161037.531000", "161037.534000", "161037.537000", "161037.539000", "161037.542000", "161037.545000", "161037.547000", "161037.550000", "161037.553000", "161037.555000", "161037.558000", "161037.561000", "161037.563000", "161057.503000", "161057.505000", "161057.508000", "161057.511000", "161057.513000", "161057.516000", "161057.518000", "161057.521000", "161057.524000", "161057.526000", "161057.529000", "161057.531000", "161057.534000", "161057.537000", "161057.539000", "161057.542000", "161057.545000", "161057.547000", "161057.550000", "161057.552000", "161137.557000", "161137.560000", "161137.563000", "161137.565000", "161137.568000", "161137.571000", "161137.573000", "161137.576000", "161137.578000", "161137.581000", "161137.584000", "161137.587000", "161137.589000", "161137.592000", "161137.595000", "161137.597000", "161137.600000", "161137.603000", "161137.605000", "161137.608000", "161137.610000", "161137.613000", "161137.616000", "161137.618000", "161137.621000", "161137.623000", "161137.626000", "161137.629000", "161137.631000", "161137.634000", "161137.636000", "161217.532000", "161217.534000", "161217.537000", "161217.540000", "161217.542000", "161217.545000", "161217.547000", "161217.550000", "161217.553000", "161217.555000", "161217.558000", "161217.561000", "161217.563000", "161217.566000", "161217.568000", "161217.571000", "161217.574000", "161217.576000", "161217.579000", "161217.582000", "161217.585000", "161217.587000", "161217.590000", "161217.593000", "161217.595000", "161217.598000", "161217.601000", "161257.551000", "161257.553000", "161257.556000", "161257.559000", "161257.561000", "161257.564000", "161257.567000", "161257.569000", "161257.572000", "161257.575000", "161257.577000", "161257.580000", "161257.582000", "161257.585000", "161257.588000", "161257.590000", "161257.593000", "161257.595000", "161257.598000", "161257.601000", "161257.603000", "161257.606000", "161257.609000", "161257.611000", "161257.614000", "161257.617000", "161257.620000", "161331.309000", "161331.312000", "161331.315000", "161331.318000", "161331.320000", "161331.323000", "161331.326000", "161331.329000", "161331.332000", "161331.335000", "161331.337000", "161331.340000", "161331.343000", "161331.346000", "161331.349000", "161331.352000", "161331.355000", "161331.357000", "161331.360000", "161331.364000", "161331.366000", "161331.369000", "161331.372000"],
      "InstanceCreationTime": ["160957.605000", "160957.608000", "160957.611000", "160957.613000", "160957.616000", "160957.619000", "160957.621000", "160957.624000", "160957.627000", "160957.629000", "160957.632000", "160957.634000", "160957.637000", "160957.648000", "160957.650000", "160957.653000", "160957.656000", "160957.658000", "160957.661000", "160957.663000", "160957.666000", "160957.669000", "160957.671000", "160957.677000", "160957.680000", "160957.683000", "160957.685000", "160957.688000", "160957.690000", "160957.693000", "160957.695000", "160957.698000", "160957.701000", "161017.516000", "161017.519000", "161017.522000", "161017.524000", "161017.527000", "161017.530000", "161017.532000", "161017.535000", "161017.537000", "161017.540000", "161017.543000", "161017.545000", "161017.548000", "161017.550000", "161017.553000", "161017.556000", "161017.558000", "161017.561000", "161017.564000", "161017.566000", "161037.510000", "161037.513000", "161037.515000", "161037.518000", "161037.521000", "161037.523000", "161037.526000", "161037.529000", "161037.531000", "161037.534000", "161037.537000", "161037.539000", "161037.542000", "161037.545000", "161037.547000", "161037.550000", "161037.553000", "161037.555000", "161037.558000", "161037.561000", "161037.563000", "161057.503000", "161057.505000", "161057.508000", "161057.511000", "161057.513000", "161057.516000", "161057.518000", "161057.521000", "161057.524000", "161057.526000", "161057.529000", "161057.531000", "161057.534000", "161057.537000", "161057.539000", "161057.542000", "161057.545000", "161057.547000", "161057.550000", "161057.552000", "161137.557000", "161137.560000", "161137.563000", "161137.565000", "161137.568000", "161137.571000", "161137.573000", "161137.576000", "161137.578000", "161137.581000", "161137.584000", "161137.587000", "161137.589000", "161137.592000", "161137.595000", "161137.597000", "161137.600000", "161137.603000", "161137.605000", "161137.608000", "161137.610000", "161137.613000", "161137.616000", "161137.618000", "161137.621000", "161137.623000", "161137.626000", "161137.629000", "161137.631000", "161137.634000", "161137.636000", "161217.532000", "161217.534000", "161217.537000", "161217.540000", "161217.542000", "161217.545000", "161217.547000", "161217.550000", "161217.553000", "161217.555000", "161217.558000", "161217.561000", "161217.563000", "161217.566000", "161217.568000", "161217.571000", "161217.574000", "161217.576000", "161217.579000", "161217.582000", "161217.585000", "161217.587000", "161217.590000", "161217.593000", "161217.595000", "161217.598000", "161217.601000", "161257.551000", "161257.553000", "161257.556000", "161257.559000", "161257.561000", "161257.564000", "161257.567000", "161257.569000", "161257.572000", "161257.575000", "161257.577000", "161257.580000", "161257.582000", "161257.585000", "161257.588000", "161257.590000", "161257.593000", "161257.595000", "161257.598000", "161257.601000", "161257.603000", "161257.606000", "161257.609000", "161257.611000", "161257.614000", "161257.617000", "161257.620000", "161331.309000", "161331.312000", "161331.315000", "161331.318000", "161331.320000", "161331.323000", "161331.326000", "161331.329000", "161331.332000", "161331.335000", "161331.337000", "161331.340000", "161331.343000", "161331.346000", "161331.349000", "161331.352000", "161331.355000", "161331.357000", "161331.360000", "161331.364000", "161331.366000", "161331.369000", "161331.372000"],
      "InstanceNumber": [1, 2, 3, 4, 5, 6, 7, 8, 9, 10, 11, 12, 13, 14, 15, 16, 17, 18, 19, 20, 21, 22, 23, 24, 25, 26, 27, 28, 29, 30, 31, 32, 33, 34, 35, 36, 37, 38, 39, 40, 41, 42, 43, 44, 45, 46, 47, 48, 49, 50, 51, 52, 53, 54, 55, 56, 57, 58, 59, 60, 61, 62, 63, 64, 65, 66, 67, 68, 69, 70, 71, 72, 73, 74, 75, 76, 77, 78, 79, 80, 81, 82, 83, 84, 85, 86, 87, 88, 89, 90, 91, 92, 93, 94, 95, 96, 97, 98, 99, 100, 101, 102, 103, 104, 105, 106, 107, 108, 109, 110, 111, 112, 113, 114, 115, 116, 117, 118, 119, 120, 121, 122, 123, 124, 125, 126, 127, 128, 129, 130, 131, 132, 133, 134, 135, 136, 137, 138, 139, 140, 141, 142, 143, 144, 145, 146, 147, 148, 149, 150, 151, 152, 153, 154, 155, 156, 157, 158, 159, 160, 161, 162, 163, 164, 165, 166, 167, 168, 169, 170, 171, 172, 173, 174, 175, 176, 177, 178, 179, 180, 181, 182, 183, 184, 185, 186, 187, 188, 189, 190, 191, 192, 193, 194, 195, 196, 197, 198, 199, 200, 201, 202],
      "WindowCenter": [4832.0, 4828.0, 4828.0, 4832.0, 4832.0, 4806.0, 4806.0, 4808.0, 4830.0, 4828.0, 4804.0, 4826.0, 4828.0, 4828.0, 4808.0, 4806.0, 4830.0, 4810.0, 4804.0, 4828.0, 4806.0, 4828.0, 4830.0, 4830.0, 4832.0, 4812.0, 4808.0, 4808.0, 4808.0, 4830.0, 4834.0, 4808.0, 4808.0, 4830.0, 4832.0, 4832.0, 4830.0, 4832.0, 4810.0, 4832.0, 4814.0, 4834.0, 4808.0, 4830.0, 4834.0, 4808.0, 4832.0, 4830.0, 4832.0, 4810.0, 4804.0, 4832.0, 4832.0, 4830.0, 4830.0, 4806.0, 4832.0, 4828.0, 4828.0, 4838.0, 4812.0, 4828.0, 4830.0, 4812.0, 4832.0, 4830.0, 4828.0, 4808.0, 4812.0, 4812.0, 4806.0, 4826.0, 4802.0, 4832.0, 4834.0, 4810.0, 4810.0, 4806.0, 4806.0, 4806.0, 4828.0, 4806.0, 4806.0, 4808.0, 4806.0, 4800.0, 4800.0, 4804.0, 4804.0, 4806.0, 4808.0, 4810.0, 4814.0, 4808.0, 4806.0, 4810.0, 4810.0, 4806.0, 4806.0, 4808.0, 4826.0, 4808.0, 4828.0, 4804.0, 4804.0, 4808.0, 4806.0, 4804.0, 4806.0, 4806.0, 4808.0, 4808.0, 4830.0, 4806.0, 4808.0, 4808.0, 4806.0, 4806.0, 4806.0, 4806.0, 4806.0, 4828.0, 4830.0, 4826.0, 4804.0, 4808.0, 4810.0, 4830.0, 4806.0, 4834.0, 4808.0, 4830.0, 4808.0, 4808.0, 4808.0, 4806.0, 4802.0, 4804.0, 4804.0, 4832.0, 4828.0, 4804.0, 4804.0, 4810.0, 4810.0, 4808.0, 4814.0, 4812.0, 4814.0, 4812.0, 4808.0, 4812.0, 4812.0, 4810.0, 4814.0, 4812.0, 4814.0, 4812.0, 4786.0, 4806.0, 4814.0, 4812.0, 4806.0, 4808.0, 4830.0, 4810.0, 4786.0, 4786.0, 4810.0, 4814.0, 4806.0, 4806.0, 4806.0, 4808.0, 4834.0, 4812.0, 4810.0, 4816.0, 4816.0, 4814.0, 4808.0, 4806.0, 4806.0, 4832.0, 4810.0, 4784.0, 4784.0, 4786.0, 4808.0, 4810.0, 4802.0, 4830.0, 4804.0, 4804.0, 4804.0, 4808.0, 4804.0, 4802.0, 4784.0, 4804.0, 4808.0, 4802.0],
      "WindowWidth": [18650.0, 18650.0, 18634.0, 18636.0, 18646.0, 18620.0, 18626.0, 18626.0, 18652.0, 18646.0, 18624.0, 18654.0, 18640.0, 18640.0, 18618.0, 18622.0, 18650.0, 18630.0, 18616.0, 18652.0, 18620.0, 18652.0, 18646.0, 18656.0, 18650.0, 18626.0, 18626.0, 18624.0, 18628.0, 18656.0, 18660.0, 18624.0, 18628.0, 18656.0, 18654.0, 18658.0, 18650.0, 18656.0, 18628.0, 18658.0, 18630.0, 18664.0, 18624.0, 18662.0, 18664.0, 18624.0, 18652.0, 18652.0, 18656.0, 18632.0, 18628.0, 18666.0, 18664.0, 18660.0, 18662.0, 18634.0, 18658.0, 18652.0, 18662.0, 18668.0, 18630.0, 18662.0, 18658.0, 18636.0, 18660.0, 18660.0, 18660.0, 18628.0, 18638.0, 18638.0, 18626.0, 18648.0, 18612.0, 18660.0, 18660.0, 18628.0, 18634.0, 18626.0, 18622.0, 18622.0, 18654.0, 18616.0, 18622.0, 18632.0, 18626.0, 18610.0, 18606.0, 18610.0, 18620.0, 18626.0, 18624.0, 18624.0, 18632.0, 18628.0, 18626.0, 18618.0, 18630.0, 18626.0, 18622.0, 18628.0, 18646.0, 18624.0, 18642.0, 18622.0, 18612.0, 18626.0, 18618.0, 18608.0, 18616.0, 18614.0, 18620.0, 18614.0, 18640.0, 18622.0, 18622.0, 18626.0, 18620.0, 18624.0, 18618.0, 18630.0, 18624.0, 18640.0, 18640.0, 18644.0, 18616.0, 18620.0, 18632.0, 18656.0, 18618.0, 18658.0, 18630.0, 18660.0, 18630.0, 18634.0, 18624.0, 18628.0, 18628.0, 18628.0, 18628.0, 18662.0, 18658.0, 18628.0, 18626.0, 18630.0, 18636.0, 18626.0, 18632.0, 18630.0, 18630.0, 18624.0, 18626.0, 18636.0, 18628.0, 18632.0, 18626.0, 18626.0, 18636.0, 18622.0, 18576.0, 18620.0, 18632.0, 18622.0, 18618.0, 18620.0, 18656.0, 18624.0, 18576.0, 18576.0, 18620.0, 18628.0, 18628.0, 18616.0, 18624.0, 18626.0, 18662.0, 18630.0, 18612.0, 18622.0, 18628.0, 18620.0, 18626.0, 18630.0, 18626.0, 18664.0, 18632.0, 18576.0, 18564.0, 18580.0, 18614.0, 18628.0, 18610.0, 18638.0, 18606.0, 18604.0, 18614.0, 18620.0, 18616.0, 18620.0, 18582.0, 18614.0, 18622.0, 18606.0]
    },
    "slices": {}
  }
}