{
  "AcquisitionMatrixPE": 104,
  "AcquisitionNumber": 1,
  "AcquisitionTime": "14:03:39.130000",
  "BandwidthPerPixelPhaseEncode": 17.17,
  "BaseResolution": 104,
  "BodyPartExamined": "BRAIN",
  "CoilString": "HC1-7;NC1_2",
  "ConsistencyInfo": "N4_VE11C_LATEST_20160120",
  "ConversionSoftware": "dcm2niix",
  "ConversionSoftwareVersion": "v1.0.20190902",
  "DerivedVendorReportedEchoSpacing": 0.000560011,
  "DeviceSerialNumber": "167006",
  "DwellTime": 2.1e-06,
  "EchoTime": 0.037,
  "EchoTrainLength": 104,
  "EffectiveEchoSpacing": 0.000560011,
  "FlipAngle": 52,
  "ImageComments": "Unaliased_MB4_PE3_LB",
  "ImageOrientationPatientDICOM": [0.998901, 0.0149263, 0.0444255, -0.001569, 0.958046, -0.286611],
  "ImageType": [
    "ORIGINAL",
    "PRIMARY",
    "M",
    "MB",
    "ND",
    "MOSAIC"
],
  "ImagingFrequency": 123.259,
  "InPlanePhaseEncodingDirectionDICOM": "COL",
  "InstitutionAddress": "Chemin_Queen-Mary_4565_Montreal_District_CA_H3W_1W5",
  "InstitutionName": "IUGM",
  "InstitutionalDepartmentName": "Department",
  "MRAcquisitionType": "2D",
  "MagneticFieldStrength": 3,
  "Manufacturer": "Siemens",
  "ManufacturersModelName": "Prisma_fit",
  "Modality": "MR",
  "MultibandAccelerationFactor": 4,
  "PartialFourier": 1,
  "PatientPosition": "HFS",
  "PercentPhaseFOV": 100,
  "PhaseEncodingDirection": "j",
  "PhaseEncodingSteps": 104,
  "PhaseResolution": 1,
  "PixelBandwidth": 2290,
  "ProcedureStepDescription": "localizers_retinotopy",
  "ProtocolName": "func_task-wedges",
  "PulseSequenceDetails": "%CustomerSeq%_cmrr_mbep2d_bold",
  "ReceiveCoilActiveElements": "HC1-7;NC1,2",
  "ReceiveCoilName": "HeadNeck_64",
  "ReconMatrixPE": 104,
  "RepetitionTime": 1.49,
  "SAR": 0.0390178,
  "ScanOptions": "FS",
  "ScanningSequence": "EP",
  "SequenceName": "epfid2d1_104",
  "SequenceVariant": "SK_SS",
  "SeriesDescription": "func_task-wedges",
  "SeriesNumber": 10,
  "ShimSetting": [644, -7205, -8775, 706, 54, 40, 6, 12],
  "SliceThickness": 2,
  "SliceTiming": [0, 0.785, 0.1, 0.8825, 0.1975, 0.98, 0.295, 1.08, 0.3925, 1.1775, 0.49, 1.275, 0.59, 1.3725, 0.6875, 0, 0.785, 0.1, 0.8825, 0.1975, 0.98, 0.295, 1.08, 0.3925, 1.1775, 0.49, 1.275, 0.59, 1.3725, 0.6875, 0, 0.785, 0.1, 0.8825, 0.1975, 0.98, 0.295, 1.08, 0.3925, 1.1775, 0.49, 1.275, 0.59, 1.3725, 0.6875, 0, 0.785, 0.1, 0.8825, 0.1975, 0.98, 0.295, 1.08, 0.3925, 1.1775, 0.49, 1.275, 0.59, 1.3725, 0.6875],
  "SoftwareVersions": "syngo_MR_E11",
  "SpacingBetweenSlices": 2,
  "StationName": "MRC35049",
  "TaskName": "wedges",
  "TotalReadoutTime": 0.0576811,
  "TxRefAmp": 217.92,
  "WipMemBlock": "023ec50e-8387-47b5-a61c-a362353ff2e1||Sequence: R016 ve11c/master r/e634e98; Dec 19 2017 11:00:25 by eja",
  "dcmmeta_affine": [
    [-1.9978023767471313, -0.003138006431981921, 0.09367937594652176, 106.68504333496094],
    [-0.029852671548724174, 1.9160914421081543, -0.5724529027938843, -71.41121673583984],
    [0.0888509452342987, 0.5732221603393555, 1.9140328168869019, -63.88362121582031],
    [0.0, 0.0, 0.0, 1.0]
],
  "dcmmeta_reorient_transform": [
    [0.0, -1.0, 0.0, 103.0],
    [1.0, 0.0, 0.0, 0.0],
    [0.0, 0.0, 1.0, 0.0],
    [0.0, 0.0, 0.0, 1.0]
],
  "dcmmeta_shape": [104, 104, 60, 202],
  "dcmmeta_slice_dim": 2,
  "dcmmeta_version": 0.6,
  "global": {
    "const": {
      "AcquisitionMatrix": [104, 0, 0, 104],
      "AngioFlag": "N",
      "BitsAllocated": 16,
      "BitsStored": 16,
      "BodyPartExamined": "BRAIN",
      "Columns": 832,
      "EchoNumbers": 1,
      "EchoTime": 37.0,
      "EchoTrainLength": 104,
      "FlipAngle": 52.0,
      "HighBit": 15,
      "ImageOrientationPatient": [0.99890118723633, 0.01492633577833, 0.04442547285153, -0.001569003226, 0.95804573102998, -0.2866110875108],
      "ImagePositionPatient": [-832.41966242263, -834.26986636552, 171.46939010622],
      "ImageType": [
        "ORIGINAL",
        "PRIMARY",
        "M",
        "MB",
        "ND",
        "MOSAIC"
],
      "ImagedNucleus": "1H",
      "ImagingFrequency": 123.258948,
      "InPlanePhaseEncodingDirection": "COL",
      "MRAcquisitionType": "2D",
      "MagneticFieldStrength": 3.0,
      "Manufacturer": "SIEMENS",
      "ManufacturerModelName": "Prisma_fit",
      "Modality": "MR",
      "NumberOfAverages": 1.0,
      "NumberOfPhaseEncodingSteps": 104,
      "PercentPhaseFieldOfView": 100.0,
      "PercentSampling": 100.0,
      "PerformedProcedureStepStartTime": "140118.074000",
      "PhotometricInterpretation": "MONOCHROME2",
      "PixelBandwidth": 2290.0,
      "PixelRepresentation": 0,
      "PixelSpacing": [2.0, 2.0],
      "ProtocolName": "func_task-wedges",
      "RepetitionTime": 1490.0,
      "Rows": 832,
      "SAR": 0.03901779540449,
      "SamplesPerPixel": 1,
      "ScanOptions": "FS",
      "ScanningSequence": "EP",
      "SequenceName": "epfid2d1_104",
      "SequenceVariant": [
        "SK",
        "SS"
],
      "SeriesDescription": "func_task-wedges",
      "SeriesNumber": 10,
      "SeriesTime": "140526.906000",
      "SliceLocation": -35.700801652477,
      "SliceThickness": 2.0,
      "SmallestImagePixelValue": 0,
      "SoftwareVersions": "syngo MR E11",
      "SpacingBetweenSlices": 1.9999999452142,
      "SpecificCharacterSet": "ISO_IR 100",
      "StudyID": "1",
      "StudyTime": "140118.002000",
      "TransmitCoilName": "Body",
      "VariableFlipAngleFlag": "N",
      "WindowCenterWidthExplanation": "Algo1",
      "dBdt": 0.0},
    "slices": {}
  },
  "time": {
    "samples": {
      "AcquisitionNumber": [1, 2, 3, 4, 5, 6, 7, 8, 9, 10, 11, 12, 13, 14, 15, 16, 17, 18, 19, 20, 21, 22, 23, 24, 25, 26, 27, 28, 29, 30, 31, 32, 33, 34, 35, 36, 37, 38, 39, 40, 41, 42, 43, 44, 45, 46, 47, 48, 49, 50, 51, 52, 53, 54, 55, 56, 57, 58, 59, 60, 61, 62, 63, 64, 65, 66, 67, 68, 69, 70, 71, 72, 73, 74, 75, 76, 77, 78, 79, 80, 81, 82, 83, 84, 85, 86, 87, 88, 89, 90, 91, 92, 93, 94, 95, 96, 97, 98, 99, 100, 101, 102, 103, 104, 105, 106, 107, 108, 109, 110, 111, 112, 113, 114, 115, 116, 117, 118, 119, 120, 121, 122, 123, 124, 125, 126, 127, 128, 129, 130, 131, 132, 133, 134, 135, 136, 137, 138, 139, 140, 141, 142, 143, 144, 145, 146, 147, 148, 149, 150, 151, 152, 153, 154, 155, 156, 157, 158, 159, 160, 161, 162, 163, 164, 165, 166, 167, 168, 169, 170, 171, 172, 173, 174, 175, 176, 177, 178, 179, 180, 181, 182, 183, 184, 185, 186, 187, 188, 189, 190, 191, 192, 193, 194, 195, 196, 197, 198, 199, 200, 201, 202],
      "AcquisitionTime": ["140339.130000", "140340.620000", "140342.110000", "140343.600000", "140345.090000", "140346.580000", "140348.070000", "140349.560000", "140351.050000", "140352.540000", "140354.030000", "140355.520000", "140357.010000", "140358.500000", "140359.990000", "140401.480000", "140402.970000", "140404.460000", "140405.950000", "140407.440000", "140408.930000", "140410.420000", "140411.910000", "140413.400000", "140414.890000", "140416.380000", "140417.870000", "140419.360000", "140420.850000", "140422.340000", "140423.830000", "140425.320000", "140426.810000", "140428.300000", "140429.790000", "140431.280000", "140432.770000", "140434.260000", "140435.750000", "140437.240000", "140438.730000", "140440.220000", "140441.710000", "140443.200000", "140444.690000", "140446.180000", "140447.670000", "140449.160000", "140450.650000", "140452.140000", "140453.630000", "140455.120000", "140456.610000", "140458.100000", "140459.590000", "140501.080000", "140502.570000", "140504.060000", "140505.550000", "140507.040000", "140508.530000", "140510.020000", "140511.510000", "140513.000000", "140514.490000", "140515.980000", "140517.470000", "140518.960000", "140520.450000", "140521.940000", "140523.430000", "140524.920000", "140526.410000", "140527.900000", "140529.390000", "140530.880000", "140532.370000", "140533.860000", "140535.350000", "140536.840000", "140538.330000", "140539.820000", "140541.310000", "140542.800000", "140544.290000", "140545.780000", "140547.270000", "140548.760000", "140550.250000", "140551.740000", "140553.230000", "140554.720000", "140556.210000", "140557.700000", "140559.190000", "140600.680000", "140602.170000", "140603.660000", "140605.150000", "140606.640000", "140608.130000", "140609.620000", "140611.110000", "140612.600000", "140614.090000", "140615.580000", "140617.070000", "140618.560000", "140620.050000", "140621.540000", "140623.030000", "140624.520000", "140626.010000", "140627.500000", "140628.990000", "140630.480000", "140631.970000", "140633.460000", "140634.950000", "140636.440000", "140637.930000", "140639.420000", "140640.910000", "140642.400000", "140643.890000", "140645.380000", "140646.870000", "140648.360000", "140649.850000", "140651.340000", "140652.830000", "140654.320000", "140655.810000", "140657.300000", "140658.790000", "140700.280000", "140701.770000", "140703.260000", "140704.750000", "140706.240000", "140707.730000", "140709.220000", "140710.710000", "140712.200000", "140713.690000", "140715.180000", "140716.670000", "140718.160000", "140719.650000", "140721.140000", "140722.630000", "140724.120000", "140725.610000", "140727.100000", "140728.590000", "140730.080000", "140731.570000", "140733.060000", "140734.550000", "140736.040000", "140737.530000", "140739.020000", "140740.510000", "140742.000000", "140743.490000", "140744.980000", "140746.470000", "140747.960000", "140749.450000", "140750.940000", "140752.430000", "140753.920000", "140755.410000", "140756.900000", "140758.390000", "140759.880000", "140801.370000", "140802.860000", "140804.350000", "140805.840000", "140807.330000", "140808.820000", "140810.310000", "140811.800000", "140813.290000", "140814.780000", "140816.270000", "140817.760000", "140819.250000", "140820.740000", "140822.230000", "140823.720000", "140825.210000", "140826.700000", "140828.190000", "140829.680000", "140831.170000", "140832.660000", "140834.150000", "140835.640000", "140837.130000", "140838.620000"],
      "ContentTime": ["140526.909000", "140526.913000", "140526.917000", "140526.920000", "140526.923000", "140526.926000", "140526.930000", "140526.933000", "140526.937000", "140526.940000", "140526.951000", "140526.954000", "140526.958000", "140526.961000", "140526.964000", "140526.968000", "140526.971000", "140526.974000", "140526.978000", "140526.981000", "140526.984000", "140526.988000", "140546.874000", "140546.878000", "140546.881000", "140546.893000", "140546.897000", "140546.900000", "140546.903000", "140546.906000", "140546.910000", "140546.913000", "140546.916000", "140546.920000", "140546.923000", "140546.928000", "140546.931000", "140546.935000", "140546.938000", "140546.941000", "140546.944000", "140546.948000", "140626.874000", "140626.878000", "140626.881000", "140626.885000", "140626.888000", "140626.891000", "140626.896000", "140626.900000", "140626.903000", "140626.906000", "140626.910000", "140626.913000", "140626.916000", "140626.920000", "140626.923000", "140626.926000", "140626.930000", "140626.933000", "140626.936000", "140626.939000", "140626.943000", "140626.946000", "140626.950000", "140626.953000", "140626.956000", "140626.960000", "140626.963000", "140626.966000", "140626.970000", "140626.973000", "140626.976000", "140626.980000", "140626.983000", "140626.986000", "140626.990000", "140626.993000", "140626.996000", "140627.001000", "140627.004000", "140646.874000", "140646.878000", "140646.881000", "140646.885000", "140646.888000", "140646.892000", "140646.895000", "140646.898000", "140646.902000", "140646.905000", "140646.909000", "140646.912000", "140646.932000", "140646.936000", "140646.939000", "140646.942000", "140646.946000", "140646.949000", "140646.952000", "140646.956000", "140646.959000", "140706.873000", "140706.877000", "140706.880000", "140706.884000", "140706.887000", "140706.890000", "140706.894000", "140706.897000", "140706.900000", "140706.904000", "140706.907000", "140706.910000", "140706.914000", "140706.917000", "140706.920000", "140706.923000", "140706.927000", "140706.930000", "140706.933000", "140706.937000", "140726.874000", "140726.878000", "140726.881000", "140726.884000", "140726.888000", "140726.891000", "140726.895000", "140726.898000", "140726.901000", "140726.904000", "140726.908000", "140726.911000", "140726.914000", "140726.918000", "140726.921000", "140726.924000", "140726.928000", "140726.931000", "140726.934000", "140726.938000", "140746.874000", "140746.878000", "140746.881000", "140746.885000", "140746.888000", "140746.891000", "140746.895000", "140746.898000", "140746.901000", "140746.904000", "140746.908000", "140746.911000", "140746.915000", "140746.918000", "140746.922000", "140746.925000", "140746.928000", "140746.932000", "140746.935000", "140746.938000", "140826.874000", "140826.878000", "140826.881000", "140826.884000", "140826.888000", "140826.891000", "140826.895000", "140826.898000", "140826.901000", "140826.905000", "140826.908000", "140826.911000", "140826.915000", "140826.918000", "140826.921000", "140826.925000", "140826.928000", "140826.931000", "140826.935000", "140826.938000", "140826.941000", "140826.945000", "140826.948000", "140826.951000", "140826.955000", "140826.958000", "140826.961000", "140826.965000", "140826.968000", "140826.972000", "140841.200000", "140841.204000", "140841.207000", "140841.211000", "140841.214000", "140841.217000", "140841.221000", "140841.224000", "140841.227000", "140841.231000"],
      "InstanceCreationTime": ["140526.909000", "140526.913000", "140526.917000", "140526.920000", "140526.923000", "140526.926000", "140526.930000", "140526.933000", "140526.937000", "140526.940000", "140526.951000", "140526.954000", "140526.958000", "140526.961000", "140526.964000", "140526.968000", "140526.971000", "140526.974000", "140526.978000", "140526.981000", "140526.984000", "140526.988000", "140546.874000", "140546.878000", "140546.881000", "140546.893000", "140546.897000", "140546.900000", "140546.903000", "140546.906000", "140546.910000", "140546.913000", "140546.916000", "140546.920000", "140546.923000", "140546.928000", "140546.931000", "140546.935000", "140546.938000", "140546.941000", "140546.944000", "140546.948000", "140626.874000", "140626.878000", "140626.881000", "140626.885000", "140626.888000", "140626.891000", "140626.896000", "140626.900000", "140626.903000", "140626.906000", "140626.910000", "140626.913000", "140626.916000", "140626.920000", "140626.923000", "140626.926000", "140626.930000", "140626.933000", "140626.936000", "140626.939000", "140626.943000", "140626.946000", "140626.950000", "140626.953000", "140626.956000", "140626.960000", "140626.963000", "140626.966000", "140626.970000", "140626.973000", "140626.976000", "140626.980000", "140626.983000", "140626.986000", "140626.990000", "140626.993000", "140626.996000", "140627.001000", "140627.004000", "140646.874000", "140646.878000", "140646.881000", "140646.885000", "140646.888000", "140646.892000", "140646.895000", "140646.898000", "140646.902000", "140646.905000", "140646.909000", "140646.912000", "140646.932000", "140646.936000", "140646.939000", "140646.942000", "140646.946000", "140646.949000", "140646.952000", "140646.956000", "140646.959000", "140706.873000", "140706.877000", "140706.880000", "140706.884000", "140706.887000", "140706.890000", "140706.894000", "140706.897000", "140706.900000", "140706.904000", "140706.907000", "140706.910000", "140706.914000", "140706.917000", "140706.920000", "140706.923000", "140706.927000", "140706.930000", "140706.933000", "140706.937000", "140726.874000", "140726.878000", "140726.881000", "140726.884000", "140726.888000", "140726.891000", "140726.895000", "140726.898000", "140726.901000", "140726.904000", "140726.908000", "140726.911000", "140726.914000", "140726.918000", "140726.921000", "140726.924000", "140726.928000", "140726.931000", "140726.934000", "140726.938000", "140746.874000", "140746.878000", "140746.881000", "140746.885000", "140746.888000", "140746.891000", "140746.895000", "140746.898000", "140746.901000", "140746.904000", "140746.908000", "140746.911000", "140746.915000", "140746.918000", "140746.922000", "140746.925000", "140746.928000", "140746.932000", "140746.935000", "140746.938000", "140826.874000", "140826.878000", "140826.881000", "140826.884000", "140826.888000", "140826.891000", "140826.895000", "140826.898000", "140826.901000", "140826.905000", "140826.908000", "140826.911000", "140826.915000", "140826.918000", "140826.921000", "140826.925000", "140826.928000", "140826.931000", "140826.935000", "140826.938000", "140826.941000", "140826.945000", "140826.948000", "140826.951000", "140826.955000", "140826.958000", "140826.961000", "140826.965000", "140826.968000", "140826.972000", "140841.200000", "140841.204000", "140841.207000", "140841.211000", "140841.214000", "140841.217000", "140841.221000", "140841.224000", "140841.227000", "140841.231000"],
      "InstanceNumber": [1, 2, 3, 4, 5, 6, 7, 8, 9, 10, 11, 12, 13, 14, 15, 16, 17, 18, 19, 20, 21, 22, 23, 24, 25, 26, 27, 28, 29, 30, 31, 32, 33, 34, 35, 36, 37, 38, 39, 40, 41, 42, 43, 44, 45, 46, 47, 48, 49, 50, 51, 52, 53, 54, 55, 56, 57, 58, 59, 60, 61, 62, 63, 64, 65, 66, 67, 68, 69, 70, 71, 72, 73, 74, 75, 76, 77, 78, 79, 80, 81, 82, 83, 84, 85, 86, 87, 88, 89, 90, 91, 92, 93, 94, 95, 96, 97, 98, 99, 100, 101, 102, 103, 104, 105, 106, 107, 108, 109, 110, 111, 112, 113, 114, 115, 116, 117, 118, 119, 120, 121, 122, 123, 124, 125, 126, 127, 128, 129, 130, 131, 132, 133, 134, 135, 136, 137, 138, 139, 140, 141, 142, 143, 144, 145, 146, 147, 148, 149, 150, 151, 152, 153, 154, 155, 156, 157, 158, 159, 160, 161, 162, 163, 164, 165, 166, 167, 168, 169, 170, 171, 172, 173, 174, 175, 176, 177, 178, 179, 180, 181, 182, 183, 184, 185, 186, 187, 188, 189, 190, 191, 192, 193, 194, 195, 196, 197, 198, 199, 200, 201, 202],
      "LargestImagePixelValue": [38856, 38415, 37503, 37658, 37170, 37566, 37371, 37106, 36591, 37334, 37195, 36673, 37705, 37309, 37090, 36582, 37695, 36585, 37242, 37630, 37039, 36962, 37595, 37387, 37394, 37450, 37433, 37068, 37124, 37697, 37196, 36654, 37346, 37312, 36932, 37423, 37195, 36849, 37533, 37489, 36704, 37324, 37070, 36841, 37416, 37308, 38007, 37191, 36998, 37770, 37584, 36723, 37475, 37018, 36951, 37429, 37252, 36922, 36954, 37035, 36476, 37051, 37353, 36845, 37276, 36973, 36770, 37963, 37557, 37043, 37669, 37970, 37045, 36915, 37359, 37232, 36761, 37578, 37371, 36486, 37436, 36636, 37104, 37014, 37482, 37164, 36808, 37567, 37565, 37083, 38266, 37838, 37429, 36422, 37235, 37525, 36709, 38057, 37503, 36909, 37076, 37273, 37810, 37554, 37179, 36368, 37644, 37231, 37086, 36772, 37255, 37438, 36750, 37672, 37360, 37079, 36812, 37531, 37382, 37255, 36871, 37683, 37046, 37218, 37831, 37499, 36864, 37350, 37577, 37381, 36993, 37654, 37217, 37629, 37255, 37495, 37390, 36759, 37437, 37460, 37212, 36306, 37450, 37181, 37007, 36587, 37299, 37077, 36664, 37394, 36939, 36311, 37583, 37206, 36908, 36998, 37194, 36431, 36762, 37205, 37235, 36525, 37415, 37017, 36990, 36174, 37649, 37134, 37057, 36429, 37424, 37424, 37214, 36121, 36947, 36894, 36787, 36226, 36414, 37315, 37128, 37408, 36439, 37473, 37209, 37281, 36947, 36401, 37213, 36647, 36693, 36550, 37373, 36750, 36503, 36766, 36327, 37113, 36880, 36341, 36290, 37019],
      "WindowCenter": [10077.0, 10045.0, 10024.0, 10014.0, 10005.0, 9996.0, 9996.0, 10013.0, 10024.0, 10030.0, 10022.0, 10013.0, 10017.0, 10021.0, 10037.0, 10020.0, 10021.0, 10001.0, 10010.0, 10017.0, 10022.0, 10039.0, 10031.0, 10016.0, 10005.0, 9995.0, 10000.0, 9996.0, 10003.0, 10009.0, 10011.0, 10014.0, 10028.0, 10022.0, 10013.0, 10008.0, 10003.0, 10003.0, 10002.0, 10009.0, 10013.0, 10012.0, 10003.0, 9995.0, 10009.0, 10013.0, 10026.0, 10030.0, 10040.0, 10044.0, 10037.0, 10018.0, 10027.0, 10022.0, 10017.0, 10026.0, 10020.0, 10015.0, 10023.0, 10038.0, 10026.0, 10021.0, 10012.0, 10012.0, 10020.0, 10031.0, 10028.0, 10028.0, 10004.0, 9994.0, 10001.0, 10010.0, 10011.0, 10006.0, 10011.0, 10004.0, 9997.0, 10008.0, 10008.0, 9998.0, 10012.0, 10015.0, 10022.0, 10007.0, 9996.0, 9987.0, 9980.0, 9986.0, 9994.0, 9995.0, 9997.0, 9997.0, 10000.0, 10005.0, 10012.0, 10004.0, 9989.0, 9999.0, 10000.0, 10003.0, 10013.0, 10012.0, 10002.0, 9984.0, 9977.0, 9988.0, 10015.0, 10013.0, 10013.0, 10013.0, 10013.0, 10020.0, 10015.0, 10019.0, 10005.0, 10004.0, 10006.0, 10014.0, 10005.0, 9990.0, 9986.0, 9999.0, 10002.0, 10010.0, 10018.0, 10020.0, 10016.0, 10018.0, 10011.0, 10012.0, 10012.0, 10018.0, 10012.0, 10012.0, 10004.0, 9998.0, 10003.0, 10005.0, 10006.0, 10011.0, 10006.0, 10009.0, 10020.0, 10011.0, 10010.0, 10006.0, 10010.0, 10003.0, 9996.0, 10008.0, 10006.0, 10001.0, 10002.0, 9986.0, 9980.0, 9991.0, 9994.0, 9991.0, 9997.0, 9996.0, 9996.0, 9991.0, 10001.0, 9996.0, 10011.0, 10016.0, 10028.0, 10006.0, 9988.0, 9978.0, 9992.0, 10010.0, 10012.0, 9993.0, 9979.0, 9968.0, 9968.0, 9974.0, 10005.0, 10023.0, 10025.0, 10016.0, 9986.0, 9986.0, 9987.0, 10011.0, 10024.0, 10017.0, 9998.0, 9981.0, 9980.0, 9986.0, 10001.0, 10004.0, 10000.0, 10000.0, 9998.0, 10004.0, 9998.0, 9997.0, 9999.0, 10005.0],
      "WindowWidth": [21441.0, 21343.0, 21286.0, 21257.0, 21236.0, 21212.0, 21211.0, 21250.0, 21277.0, 21288.0, 21269.0, 21249.0, 21253.0, 21267.0, 21303.0, 21270.0, 21263.0, 21225.0, 21238.0, 21255.0, 21271.0, 21307.0, 21291.0, 21256.0, 21228.0, 21209.0, 21219.0, 21213.0, 21226.0, 21236.0, 21242.0, 21249.0, 21277.0, 21267.0, 21245.0, 21230.0, 21224.0, 21223.0, 21219.0, 21235.0, 21249.0, 21244.0, 21223.0, 21209.0, 21237.0, 21249.0, 21276.0, 21290.0, 21311.0, 21317.0, 21300.0, 21262.0, 21276.0, 21266.0, 21259.0, 21274.0, 21262.0, 21253.0, 21273.0, 21303.0, 21281.0, 21266.0, 21246.0, 21246.0, 21264.0, 21291.0, 21287.0, 21277.0, 21224.0, 21204.0, 21218.0, 21239.0, 21242.0, 21233.0, 21239.0, 21225.0, 21210.0, 21227.0, 21230.0, 21214.0, 21242.0, 21253.0, 21265.0, 21232.0, 21204.0, 21183.0, 21172.0, 21184.0, 21204.0, 21205.0, 21205.0, 21206.0, 21214.0, 21229.0, 21245.0, 21224.0, 21189.0, 21207.0, 21213.0, 21223.0, 21246.0, 21243.0, 21218.0, 21176.0, 21163.0, 21190.0, 21247.0, 21249.0, 21249.0, 21247.0, 21248.0, 21261.0, 21253.0, 21257.0, 21229.0, 21228.0, 21235.0, 21250.0, 21228.0, 21197.0, 21185.0, 21211.0, 21221.0, 21238.0, 21253.0, 21260.0, 21253.0, 21255.0, 21240.0, 21241.0, 21242.0, 21251.0, 21241.0, 21244.0, 21228.0, 21214.0, 21224.0, 21230.0, 21231.0, 21241.0, 21234.0, 21241.0, 21259.0, 21241.0, 21235.0, 21230.0, 21236.0, 21220.0, 21206.0, 21230.0, 21233.0, 21224.0, 21219.0, 21185.0, 21173.0, 21195.0, 21204.0, 21203.0, 21212.0, 21209.0, 21209.0, 21200.0, 21216.0, 21209.0, 21241.0, 21256.0, 21274.0, 21229.0, 21185.0, 21164.0, 21195.0, 21236.0, 21243.0, 21203.0, 21169.0, 21142.0, 21145.0, 21165.0, 21230.0, 21269.0, 21276.0, 21252.0, 21188.0, 21182.0, 21185.0, 21240.0, 21272.0, 21256.0, 21209.0, 21170.0, 21169.0, 21184.0, 21213.0, 21223.0, 21219.0, 21217.0, 21213.0, 21225.0, 21212.0, 21211.0, 21217.0, 21228.0]
    },
    "slices": {}
  }
}