{
  "AcquisitionMatrixPE": 104,
  "AcquisitionNumber": 1,
  "AcquisitionTime": "18:38:15.892500",
  "BandwidthPerPixelPhaseEncode": 17.17,
  "BaseResolution": 104,
  "BodyPartExamined": "BRAIN",
  "CoilString": "HC1-7;NC1_2",
  "ConsistencyInfo": "N4_VE11C_LATEST_20160120",
  "ConversionSoftware": "dcm2niix",
  "ConversionSoftwareVersion": "v1.0.20190902",
  "DerivedVendorReportedEchoSpacing": 0.000560011,
  "DeviceSerialNumber": "167006",
  "DwellTime": 2.1e-06,
  "EchoTime": 0.037,
  "EchoTrainLength": 104,
  "EffectiveEchoSpacing": 0.000560011,
  "FlipAngle": 52,
  "ImageComments": "Unaliased_MB4_PE3_LB",
  "ImageOrientationPatientDICOM": [0.995557, 0.0909954, 0.0242255, -0.0748562, 0.920855, -0.382653],
  "ImageType": [
    "ORIGINAL",
    "PRIMARY",
    "P",
    "MB",
    "ND",
    "MOSAIC"
],
  "ImagingFrequency": 123.259,
  "InPlanePhaseEncodingDirectionDICOM": "COL",
  "InstitutionAddress": "Chemin_Queen-Mary_4565_Montreal_District_CA_H3W_1W5",
  "InstitutionName": "IUGM",
  "InstitutionalDepartmentName": "Department",
  "MRAcquisitionType": "2D",
  "MagneticFieldStrength": 3,
  "Manufacturer": "Siemens",
  "ManufacturersModelName": "Prisma_fit",
  "Modality": "MR",
  "MultibandAccelerationFactor": 4,
  "PartialFourier": 1,
  "PatientPosition": "HFS",
  "PercentPhaseFOV": 100,
  "PhaseEncodingDirection": "j",
  "PhaseEncodingSteps": 104,
  "PhaseResolution": 1,
  "PixelBandwidth": 2290,
  "ProcedureStepDescription": "localizers_retinotopy",
  "ProtocolName": "func_task-bars",
  "PulseSequenceDetails": "%CustomerSeq%_cmrr_mbep2d_bold",
  "ReceiveCoilActiveElements": "HC1-7;NC1,2",
  "ReceiveCoilName": "HeadNeck_64",
  "ReconMatrixPE": 104,
  "RepetitionTime": 1.49,
  "SAR": 0.0721402,
  "ScanOptions": "FS",
  "ScanningSequence": "EP",
  "SequenceName": "epfid2d1_104",
  "SequenceVariant": "SK_SS",
  "SeriesDescription": "func_task-bars",
  "SeriesNumber": 17,
  "ShimSetting": [624, -7189, -8805, 633, 70, -2, -63, 2],
  "SliceThickness": 2,
  "SliceTiming": [0, 0.785, 0.1, 0.8825, 0.1975, 0.98, 0.295, 1.08, 0.3925, 1.1775, 0.49, 1.275, 0.59, 1.3725, 0.6875, 0, 0.785, 0.1, 0.8825, 0.1975, 0.98, 0.295, 1.08, 0.3925, 1.1775, 0.49, 1.275, 0.59, 1.3725, 0.6875, 0, 0.785, 0.1, 0.8825, 0.1975, 0.98, 0.295, 1.08, 0.3925, 1.1775, 0.49, 1.275, 0.59, 1.3725, 0.6875, 0, 0.785, 0.1, 0.8825, 0.1975, 0.98, 0.295, 1.08, 0.3925, 1.1775, 0.49, 1.275, 0.59, 1.3725, 0.6875],
  "SoftwareVersions": "syngo_MR_E11",
  "SpacingBetweenSlices": 2,
  "StationName": "MRC35049",
  "TaskName": "bars",
  "TotalReadoutTime": 0.0576811,
  "TxRefAmp": 312.208,
  "WipMemBlock": "521f2649-5e0c-45e9-a381-f5f4a3459502||Sequence: R016 ve11c/master r/e634e98; Dec 19 2017 11:00:25 by eja",
  "dcmmeta_affine": [
    [-1.9911131858825684, -0.14971239864826202, 0.11425551027059555, 110.5137939453125],
    [-0.18199074268341064, 1.8417094945907593, -0.7582778930664062, -48.59233474731445],
    [0.048450931906700134, 0.7653052806854248, 1.8471492528915405, -60.85215377807617],
    [0.0, 0.0, 0.0, 1.0]
],
  "dcmmeta_reorient_transform": [
    [0.0, -1.0, 0.0, 103.0],
    [1.0, 0.0, 0.0, 0.0],
    [0.0, 0.0, 1.0, 0.0],
    [0.0, 0.0, 0.0, 1.0]
],
  "dcmmeta_shape": [104, 104, 60, 202],
  "dcmmeta_slice_dim": 2,
  "dcmmeta_version": 0.6,
  "global": {
    "const": {
      "AcquisitionMatrix": [104, 0, 0, 104],
      "AngioFlag": "N",
      "BitsAllocated": 16,
      "BitsStored": 16,
      "BodyPartExamined": "BRAIN",
      "Columns": 832,
      "EchoNumbers": 1,
      "EchoTime": 37.0,
      "EchoTrainLength": 104,
      "FlipAngle": 52.0,
      "HighBit": 15,
      "ImageOrientationPatient": [0.99555661266788, 0.09099537206188, 0.02422546669482, -0.0748561992442, 0.92085477337112, -0.3826526307166],
      "ImagePositionPatient": [-765.36331501437, -877.73065507618, 278.90926309125],
      "ImageType": [
        "ORIGINAL",
        "PRIMARY",
        "P",
        "MB",
        "ND",
        "MOSAIC"
],
      "ImagedNucleus": "1H",
      "ImagingFrequency": 123.258932,
      "InPlanePhaseEncodingDirection": "COL",
      "LargestImagePixelValue": 4095,
      "MRAcquisitionType": "2D",
      "MagneticFieldStrength": 3.0,
      "Manufacturer": "SIEMENS",
      "ManufacturerModelName": "Prisma_fit",
      "Modality": "MR",
      "NumberOfAverages": 1.0,
      "NumberOfPhaseEncodingSteps": 104,
      "PercentPhaseFieldOfView": 100.0,
      "PercentSampling": 100.0,
      "PerformedProcedureStepStartTime": "182110.053000",
      "PhotometricInterpretation": "MONOCHROME2",
      "PixelBandwidth": 2290.0,
      "PixelRepresentation": 0,
      "PixelSpacing": [2.0, 2.0],
      "ProtocolName": "func_task-bars",
      "RepetitionTime": 1490.0,
      "RescaleIntercept": -4096.0,
      "RescaleSlope": 2.0,
      "RescaleType": "US",
      "Rows": 832,
      "SAR": 0.07214015813253,
      "SamplesPerPixel": 1,
      "ScanOptions": "FS",
      "ScanningSequence": "EP",
      "SequenceName": "epfid2d1_104",
      "SequenceVariant": [
        "SK",
        "SS"
],
      "SeriesDescription": "func_task-bars",
      "SeriesNumber": 17,
      "SeriesTime": "183943.081000",
      "SliceLocation": -31.464855252403,
      "SliceThickness": 2.0,
      "SmallestImagePixelValue": 0,
      "SoftwareVersions": "syngo MR E11",
      "SpacingBetweenSlices": 2.0000000529293,
      "SpecificCharacterSet": "ISO_IR 100",
      "StudyID": "1",
      "StudyTime": "182109.966000",
      "TransmitCoilName": "Body",
      "VariableFlipAngleFlag": "N",
      "WindowCenterWidthExplanation": "Algo1",
      "dBdt": 0.0},
    "slices": {}
  },
  "time": {
    "samples": {
      "AcquisitionNumber": [1, 2, 3, 4, 5, 6, 7, 8, 9, 10, 11, 12, 13, 14, 15, 16, 17, 18, 19, 20, 21, 22, 23, 24, 25, 26, 27, 28, 29, 30, 31, 32, 33, 34, 35, 36, 37, 38, 39, 40, 41, 42, 43, 44, 45, 46, 47, 48, 49, 50, 51, 52, 53, 54, 55, 56, 57, 58, 59, 60, 61, 62, 63, 64, 65, 66, 67, 68, 69, 70, 71, 72, 73, 74, 75, 76, 77, 78, 79, 80, 81, 82, 83, 84, 85, 86, 87, 88, 89, 90, 91, 92, 93, 94, 95, 96, 97, 98, 99, 100, 101, 102, 103, 104, 105, 106, 107, 108, 109, 110, 111, 112, 113, 114, 115, 116, 117, 118, 119, 120, 121, 122, 123, 124, 125, 126, 127, 128, 129, 130, 131, 132, 133, 134, 135, 136, 137, 138, 139, 140, 141, 142, 143, 144, 145, 146, 147, 148, 149, 150, 151, 152, 153, 154, 155, 156, 157, 158, 159, 160, 161, 162, 163, 164, 165, 166, 167, 168, 169, 170, 171, 172, 173, 174, 175, 176, 177, 178, 179, 180, 181, 182, 183, 184, 185, 186, 187, 188, 189, 190, 191, 192, 193, 194, 195, 196, 197, 198, 199, 200, 201, 202],
      "AcquisitionTime": ["183815.892500", "183817.382500", "183818.872500", "183820.362500", "183821.852500", "183823.342500", "183824.832500", "183826.322500", "183827.812500", "183829.302500", "183830.792500", "183832.282500", "183833.772500", "183835.262500", "183836.752500", "183838.242500", "183839.732500", "183841.222500", "183842.712500", "183844.202500", "183845.692500", "183847.182500", "183848.672500", "183850.162500", "183851.652500", "183853.142500", "183854.632500", "183856.122500", "183857.612500", "183859.102500", "183900.592500", "183902.082500", "183903.572500", "183905.062500", "183906.552500", "183908.042500", "183909.532500", "183911.022500", "183912.512500", "183914.002500", "183915.492500", "183916.982500", "183918.472500", "183919.962500", "183921.452500", "183922.942500", "183924.432500", "183925.922500", "183927.412500", "183928.902500", "183930.392500", "183931.882500", "183933.372500", "183934.862500", "183936.352500", "183937.842500", "183939.332500", "183940.822500", "183942.312500", "183943.802500", "183945.292500", "183946.782500", "183948.272500", "183949.762500", "183951.252500", "183952.742500", "183954.232500", "183955.722500", "183957.212500", "183958.702500", "184000.192500", "184001.682500", "184003.172500", "184004.662500", "184006.152500", "184007.642500", "184009.132500", "184010.622500", "184012.112500", "184013.602500", "184015.092500", "184016.582500", "184018.072500", "184019.562500", "184021.052500", "184022.542500", "184024.032500", "184025.522500", "184027.012500", "184028.502500", "184029.992500", "184031.482500", "184032.972500", "184034.462500", "184035.952500", "184037.442500", "184038.932500", "184040.422500", "184041.912500", "184043.402500", "184044.892500", "184046.382500", "184047.872500", "184049.362500", "184050.852500", "184052.342500", "184053.832500", "184055.322500", "184056.812500", "184058.302500", "184059.792500", "184101.282500", "184102.772500", "184104.262500", "184105.752500", "184107.242500", "184108.732500", "184110.222500", "184111.712500", "184113.202500", "184114.692500", "184116.182500", "184117.672500", "184119.162500", "184120.652500", "184122.142500", "184123.632500", "184125.122500", "184126.612500", "184128.102500", "184129.592500", "184131.082500", "184132.572500", "184134.062500", "184135.552500", "184137.042500", "184138.532500", "184140.022500", "184141.512500", "184143.002500", "184144.492500", "184145.982500", "184147.472500", "184148.962500", "184150.452500", "184151.942500", "184153.432500", "184154.922500", "184156.412500", "184157.902500", "184159.392500", "184200.882500", "184202.372500", "184203.862500", "184205.352500", "184206.842500", "184208.332500", "184209.822500", "184211.312500", "184212.802500", "184214.292500", "184215.782500", "184217.272500", "184218.762500", "184220.252500", "184221.742500", "184223.232500", "184224.722500", "184226.212500", "184227.702500", "184229.192500", "184230.682500", "184232.172500", "184233.662500", "184235.152500", "184236.642500", "184238.132500", "184239.622500", "184241.112500", "184242.602500", "184244.092500", "184245.582500", "184247.072500", "184248.562500", "184250.052500", "184251.542500", "184253.032500", "184254.522500", "184256.012500", "184257.502500", "184258.992500", "184300.482500", "184301.972500", "184303.462500", "184304.952500", "184306.442500", "184307.932500", "184309.422500", "184310.912500", "184312.402500", "184313.892500", "184315.382500"],
      "ContentTime": ["183943.083000", "183943.086000", "183943.088000", "183943.091000", "183943.093000", "183943.096000", "183943.098000", "183943.101000", "183943.103000", "183943.106000", "183943.108000", "183943.111000", "183943.113000", "183943.116000", "183943.118000", "183943.121000", "183943.123000", "183943.126000", "183943.128000", "183943.131000", "183943.133000", "183943.136000", "183943.138000", "183943.141000", "183943.143000", "183943.146000", "183943.148000", "183943.151000", "183943.154000", "183943.156000", "183943.159000", "183943.161000", "184002.989000", "184002.992000", "184002.994000", "184002.997000", "184002.999000", "184003.002000", "184003.005000", "184003.007000", "184003.010000", "184003.012000", "184003.015000", "184003.018000", "184003.020000", "184003.023000", "184003.025000", "184003.028000", "184003.030000", "184003.033000", "184003.035000", "184003.038000", "184022.971000", "184022.974000", "184022.977000", "184022.979000", "184022.982000", "184022.984000", "184022.987000", "184022.990000", "184022.992000", "184022.995000", "184022.998000", "184023.001000", "184023.004000", "184023.006000", "184023.009000", "184023.011000", "184023.014000", "184023.017000", "184023.019000", "184023.022000", "184042.976000", "184042.979000", "184042.982000", "184042.984000", "184042.987000", "184042.990000", "184042.992000", "184042.995000", "184042.997000", "184043.001000", "184043.003000", "184043.006000", "184043.009000", "184043.011000", "184043.014000", "184043.016000", "184043.019000", "184043.021000", "184043.024000", "184043.026000", "184123.031000", "184123.033000", "184123.036000", "184123.038000", "184123.041000", "184123.043000", "184123.046000", "184123.048000", "184123.051000", "184123.054000", "184123.056000", "184123.059000", "184123.061000", "184123.064000", "184123.067000", "184123.069000", "184123.072000", "184123.074000", "184123.077000", "184123.079000", "184123.082000", "184123.084000", "184123.087000", "184123.090000", "184123.093000", "184123.095000", "184123.098000", "184123.100000", "184123.103000", "184123.106000", "184123.108000", "184123.111000", "184123.113000", "184203.021000", "184203.024000", "184203.026000", "184203.029000", "184203.032000", "184203.034000", "184203.037000", "184203.039000", "184203.042000", "184203.044000", "184203.047000", "184203.049000", "184203.052000", "184203.054000", "184203.057000", "184203.060000", "184203.062000", "184203.065000", "184203.068000", "184203.070000", "184203.073000", "184203.076000", "184203.078000", "184203.081000", "184203.084000", "184203.086000", "184203.089000", "184243.572000", "184243.575000", "184243.577000", "184243.580000", "184243.582000", "184243.585000", "184243.587000", "184243.590000", "184243.592000", "184243.595000", "184243.598000", "184243.600000", "184243.603000", "184243.610000", "184243.613000", "184243.615000", "184243.618000", "184243.620000", "184243.623000", "184243.626000", "184243.628000", "184243.631000", "184243.633000", "184243.636000", "184243.638000", "184243.641000", "184243.644000", "184317.192000", "184317.194000", "184317.197000", "184317.200000", "184317.209000", "184317.212000", "184317.214000", "184317.217000", "184317.219000", "184317.222000", "184317.224000", "184317.227000", "184317.229000", "184317.232000", "184317.235000", "184317.237000", "184317.240000", "184317.242000", "184317.245000", "184317.248000", "184317.268000", "184317.271000", "184317.273000"],
      "InstanceCreationTime": ["183943.083000", "183943.086000", "183943.088000", "183943.091000", "183943.093000", "183943.096000", "183943.098000", "183943.101000", "183943.103000", "183943.106000", "183943.108000", "183943.111000", "183943.113000", "183943.116000", "183943.118000", "183943.121000", "183943.123000", "183943.126000", "183943.128000", "183943.131000", "183943.133000", "183943.136000", "183943.138000", "183943.141000", "183943.143000", "183943.146000", "183943.148000", "183943.151000", "183943.154000", "183943.156000", "183943.159000", "183943.161000", "184002.989000", "184002.992000", "184002.994000", "184002.997000", "184002.999000", "184003.002000", "184003.005000", "184003.007000", "184003.010000", "184003.012000", "184003.015000", "184003.018000", "184003.020000", "184003.023000", "184003.025000", "184003.028000", "184003.030000", "184003.033000", "184003.035000", "184003.038000", "184022.971000", "184022.974000", "184022.977000", "184022.979000", "184022.982000", "184022.984000", "184022.987000", "184022.990000", "184022.992000", "184022.995000", "184022.998000", "184023.001000", "184023.004000", "184023.006000", "184023.009000", "184023.011000", "184023.014000", "184023.017000", "184023.019000", "184023.022000", "184042.976000", "184042.979000", "184042.982000", "184042.984000", "184042.987000", "184042.990000", "184042.992000", "184042.995000", "184042.997000", "184043.001000", "184043.003000", "184043.006000", "184043.009000", "184043.011000", "184043.014000", "184043.016000", "184043.019000", "184043.021000", "184043.024000", "184043.026000", "184123.031000", "184123.033000", "184123.036000", "184123.038000", "184123.041000", "184123.043000", "184123.046000", "184123.048000", "184123.051000", "184123.054000", "184123.056000", "184123.059000", "184123.061000", "184123.064000", "184123.067000", "184123.069000", "184123.072000", "184123.074000", "184123.077000", "184123.079000", "184123.082000", "184123.084000", "184123.087000", "184123.090000", "184123.093000", "184123.095000", "184123.098000", "184123.100000", "184123.103000", "184123.106000", "184123.108000", "184123.111000", "184123.113000", "184203.021000", "184203.024000", "184203.026000", "184203.029000", "184203.032000", "184203.034000", "184203.037000", "184203.039000", "184203.042000", "184203.044000", "184203.047000", "184203.049000", "184203.052000", "184203.054000", "184203.057000", "184203.060000", "184203.062000", "184203.065000", "184203.068000", "184203.070000", "184203.073000", "184203.076000", "184203.078000", "184203.081000", "184203.084000", "184203.086000", "184203.089000", "184243.572000", "184243.575000", "184243.577000", "184243.580000", "184243.582000", "184243.585000", "184243.587000", "184243.590000", "184243.592000", "184243.595000", "184243.598000", "184243.600000", "184243.603000", "184243.610000", "184243.613000", "184243.615000", "184243.618000", "184243.620000", "184243.623000", "184243.626000", "184243.628000", "184243.631000", "184243.633000", "184243.636000", "184243.638000", "184243.641000", "184243.644000", "184317.192000", "184317.194000", "184317.197000", "184317.200000", "184317.209000", "184317.212000", "184317.214000", "184317.217000", "184317.219000", "184317.222000", "184317.224000", "184317.227000", "184317.229000", "184317.232000", "184317.235000", "184317.237000", "184317.240000", "184317.242000", "184317.245000", "184317.248000", "184317.268000", "184317.271000", "184317.273000"],
      "InstanceNumber": [1, 2, 3, 4, 5, 6, 7, 8, 9, 10, 11, 12, 13, 14, 15, 16, 17, 18, 19, 20, 21, 22, 23, 24, 25, 26, 27, 28, 29, 30, 31, 32, 33, 34, 35, 36, 37, 38, 39, 40, 41, 42, 43, 44, 45, 46, 47, 48, 49, 50, 51, 52, 53, 54, 55, 56, 57, 58, 59, 60, 61, 62, 63, 64, 65, 66, 67, 68, 69, 70, 71, 72, 73, 74, 75, 76, 77, 78, 79, 80, 81, 82, 83, 84, 85, 86, 87, 88, 89, 90, 91, 92, 93, 94, 95, 96, 97, 98, 99, 100, 101, 102, 103, 104, 105, 106, 107, 108, 109, 110, 111, 112, 113, 114, 115, 116, 117, 118, 119, 120, 121, 122, 123, 124, 125, 126, 127, 128, 129, 130, 131, 132, 133, 134, 135, 136, 137, 138, 139, 140, 141, 142, 143, 144, 145, 146, 147, 148, 149, 150, 151, 152, 153, 154, 155, 156, 157, 158, 159, 160, 161, 162, 163, 164, 165, 166, 167, 168, 169, 170, 171, 172, 173, 174, 175, 176, 177, 178, 179, 180, 181, 182, 183, 184, 185, 186, 187, 188, 189, 190, 191, 192, 193, 194, 195, 196, 197, 198, 199, 200, 201, 202],
      "WindowCenter": [4836.0, 4834.0, 4804.0, 4804.0, 4802.0, 4836.0, 4840.0, 4868.0, 4866.0, 4838.0, 4830.0, 4798.0, 4778.0, 4802.0, 4776.0, 4802.0, 4804.0, 4834.0, 4862.0, 4872.0, 4866.0, 4862.0, 4828.0, 4794.0, 4772.0, 4774.0, 4794.0, 4830.0, 4836.0, 4858.0, 4860.0, 4860.0, 4856.0, 4834.0, 4826.0, 4800.0, 4796.0, 4798.0, 4800.0, 4828.0, 4826.0, 4832.0, 4832.0, 4830.0, 4832.0, 4826.0, 4824.0, 4802.0, 4802.0, 4798.0, 4798.0, 4802.0, 4830.0, 4826.0, 4832.0, 4834.0, 4830.0, 4828.0, 4824.0, 4796.0, 4796.0, 4802.0, 4798.0, 4824.0, 4826.0, 4826.0, 4830.0, 4828.0, 4826.0, 4828.0, 4798.0, 4800.0, 4800.0, 4824.0, 4796.0, 4800.0, 4826.0, 4824.0, 4802.0, 4804.0, 4798.0, 4828.0, 4832.0, 4834.0, 4830.0, 4802.0, 4800.0, 4828.0, 4826.0, 4830.0, 4828.0, 4826.0, 4802.0, 4800.0, 4804.0, 4828.0, 4824.0, 4800.0, 4800.0, 4804.0, 4806.0, 4824.0, 4804.0, 4826.0, 4806.0, 4826.0, 4828.0, 4802.0, 4798.0, 4796.0, 4800.0, 4800.0, 4802.0, 4824.0, 4826.0, 4828.0, 4800.0, 4802.0, 4800.0, 4826.0, 4802.0, 4804.0, 4802.0, 4828.0, 4804.0, 4798.0, 4794.0, 4772.0, 4798.0, 4798.0, 4824.0, 4828.0, 4828.0, 4826.0, 4800.0, 4774.0, 4772.0, 4776.0, 4798.0, 4798.0, 4800.0, 4802.0, 4800.0, 4826.0, 4800.0, 4800.0, 4802.0, 4796.0, 4798.0, 4800.0, 4794.0, 4798.0, 4798.0, 4796.0, 4796.0, 4774.0, 4774.0, 4774.0, 4800.0, 4802.0, 4826.0, 4826.0, 4802.0, 4798.0, 4798.0, 4796.0, 4800.0, 4798.0, 4802.0, 4800.0, 4804.0, 4800.0, 4798.0, 4800.0, 4800.0, 4798.0, 4800.0, 4800.0, 4798.0, 4800.0, 4802.0, 4800.0, 4802.0, 4800.0, 4798.0, 4774.0, 4798.0, 4796.0, 4800.0, 4800.0, 4826.0, 4796.0, 4802.0, 4796.0, 4800.0, 4798.0, 4796.0, 4800.0, 4796.0, 4796.0, 4800.0, 4798.0],
      "WindowWidth": [18664.0, 18658.0, 18616.0, 18612.0, 18612.0, 18658.0, 18658.0, 18676.0, 18684.0, 18658.0, 18650.0, 18608.0, 18580.0, 18606.0, 18576.0, 18610.0, 18608.0, 18658.0, 18668.0, 18668.0, 18672.0, 18688.0, 18656.0, 18612.0, 18572.0, 18566.0, 18614.0, 18658.0, 18660.0, 18692.0, 18690.0, 18694.0, 18692.0, 18662.0, 18656.0, 18616.0, 18612.0, 18620.0, 18620.0, 18656.0, 18660.0, 18664.0, 18662.0, 18660.0, 18662.0, 18656.0, 18652.0, 18622.0, 18622.0, 18622.0, 18616.0, 18624.0, 18660.0, 18658.0, 18664.0, 18664.0, 18660.0, 18658.0, 18656.0, 18614.0, 18618.0, 18624.0, 18620.0, 18656.0, 18658.0, 18658.0, 18662.0, 18662.0, 18656.0, 18656.0, 18620.0, 18622.0, 18624.0, 18656.0, 18622.0, 18626.0, 18656.0, 18654.0, 18622.0, 18620.0, 18614.0, 18656.0, 18664.0, 18662.0, 18660.0, 18620.0, 18616.0, 18658.0, 18652.0, 18658.0, 18654.0, 18656.0, 18624.0, 18624.0, 18622.0, 18658.0, 18660.0, 18626.0, 18618.0, 18626.0, 18628.0, 18656.0, 18628.0, 18654.0, 18626.0, 18656.0, 18656.0, 18628.0, 18620.0, 18614.0, 18624.0, 18618.0, 18624.0, 18652.0, 18658.0, 18658.0, 18622.0, 18620.0, 18622.0, 18658.0, 18624.0, 18624.0, 18620.0, 18656.0, 18626.0, 18624.0, 18622.0, 18584.0, 18624.0, 18618.0, 18656.0, 18664.0, 18662.0, 18654.0, 18624.0, 18584.0, 18582.0, 18584.0, 18620.0, 18626.0, 18626.0, 18628.0, 18626.0, 18656.0, 18622.0, 18626.0, 18624.0, 18616.0, 18620.0, 18620.0, 18616.0, 18620.0, 18626.0, 18624.0, 18620.0, 18590.0, 18586.0, 18586.0, 18620.0, 18622.0, 18656.0, 18654.0, 18626.0, 18614.0, 18618.0, 18620.0, 18622.0, 18624.0, 18624.0, 18626.0, 18622.0, 18624.0, 18618.0, 18624.0, 18620.0, 18618.0, 18622.0, 18622.0, 18616.0, 18620.0, 18624.0, 18622.0, 18624.0, 18624.0, 18622.0, 18582.0, 18614.0, 18622.0, 18626.0, 18628.0, 18656.0, 18616.0, 18630.0, 18618.0, 18620.0, 18620.0, 18616.0, 18616.0, 18618.0, 18618.0, 18622.0, 18624.0]
    },
    "slices": {}
  }
}