{
  "AcquisitionMatrixPE": 104,
  "AcquisitionNumber": 1,
  "AcquisitionTime": "18:25:11.672500",
  "BandwidthPerPixelPhaseEncode": 17.17,
  "BaseResolution": 104,
  "BodyPartExamined": "BRAIN",
  "CoilString": "HC1-7;NC1_2",
  "ConsistencyInfo": "N4_VE11C_LATEST_20160120",
  "ConversionSoftware": "dcm2niix",
  "ConversionSoftwareVersion": "v1.0.20190902",
  "DerivedVendorReportedEchoSpacing": 0.000560011,
  "DeviceSerialNumber": "167006",
  "DwellTime": 2.1e-06,
  "EchoTime": 0.037,
  "EchoTrainLength": 104,
  "EffectiveEchoSpacing": 0.000560011,
  "FlipAngle": 52,
  "ImageComments": "Unaliased_MB4_PE3_LB",
  "ImageOrientationPatientDICOM": [0.995557, 0.0909954, 0.0242255, -0.0748562, 0.920855, -0.382653],
  "ImageType": [
    "ORIGINAL",
    "PRIMARY",
    "M",
    "MB",
    "ND",
    "MOSAIC"
],
  "ImagingFrequency": 123.259,
  "InPlanePhaseEncodingDirectionDICOM": "COL",
  "InstitutionAddress": "Chemin_Queen-Mary_4565_Montreal_District_CA_H3W_1W5",
  "InstitutionName": "IUGM",
  "InstitutionalDepartmentName": "Department",
  "MRAcquisitionType": "2D",
  "MagneticFieldStrength": 3,
  "Manufacturer": "Siemens",
  "ManufacturersModelName": "Prisma_fit",
  "Modality": "MR",
  "MultibandAccelerationFactor": 4,
  "PartialFourier": 1,
  "PatientPosition": "HFS",
  "PercentPhaseFOV": 100,
  "PhaseEncodingDirection": "j",
  "PhaseEncodingSteps": 104,
  "PhaseResolution": 1,
  "PixelBandwidth": 2290,
  "ProcedureStepDescription": "localizers_retinotopy",
  "ProtocolName": "func_task-wedges",
  "PulseSequenceDetails": "%CustomerSeq%_cmrr_mbep2d_bold",
  "ReceiveCoilActiveElements": "HC1-7;NC1,2",
  "ReceiveCoilName": "HeadNeck_64",
  "ReconMatrixPE": 104,
  "RepetitionTime": 1.49,
  "SAR": 0.0721402,
  "ScanOptions": "FS",
  "ScanningSequence": "EP",
  "SequenceName": "epfid2d1_104",
  "SequenceVariant": "SK_SS",
  "SeriesDescription": "func_task-wedges",
  "SeriesNumber": 10,
  "ShimSetting": [624, -7189, -8805, 633, 70, -2, -63, 2],
  "SliceThickness": 2,
  "SliceTiming": [0, 0.7825, 0.0975, 0.8825, 0.195, 0.98, 0.2925, 1.0775, 0.3925, 1.175, 0.49, 1.2725, 0.5875, 1.37, 0.685, 0, 0.7825, 0.0975, 0.8825, 0.195, 0.98, 0.2925, 1.0775, 0.3925, 1.175, 0.49, 1.2725, 0.5875, 1.37, 0.685, 0, 0.7825, 0.0975, 0.8825, 0.195, 0.98, 0.2925, 1.0775, 0.3925, 1.175, 0.49, 1.2725, 0.5875, 1.37, 0.685, 0, 0.7825, 0.0975, 0.8825, 0.195, 0.98, 0.2925, 1.0775, 0.3925, 1.175, 0.49, 1.2725, 0.5875, 1.37, 0.685],
  "SoftwareVersions": "syngo_MR_E11",
  "SpacingBetweenSlices": 2,
  "StationName": "MRC35049",
  "TaskName": "wedges",
  "TotalReadoutTime": 0.0576811,
  "TxRefAmp": 312.208,
  "WipMemBlock": "fa2bd40c-73d2-4b70-b2bf-0fc61141f625||Sequence: R016 ve11c/master r/e634e98; Dec 19 2017 11:00:25 by eja",
  "dcmmeta_affine": [
    [-1.9911131858825684, -0.14971239864826202, 0.11425551027059555, 110.5137939453125],
    [-0.18199074268341064, 1.8417094945907593, -0.7582778930664062, -48.59233474731445],
    [0.048450931906700134, 0.7653052806854248, 1.8471492528915405, -60.85215377807617],
    [0.0, 0.0, 0.0, 1.0]
],
  "dcmmeta_reorient_transform": [
    [0.0, -1.0, 0.0, 103.0],
    [1.0, 0.0, 0.0, 0.0],
    [0.0, 0.0, 1.0, 0.0],
    [0.0, 0.0, 0.0, 1.0]
],
  "dcmmeta_shape": [104, 104, 60, 202],
  "dcmmeta_slice_dim": 2,
  "dcmmeta_version": 0.6,
  "global": {
    "const": {
      "AcquisitionMatrix": [104, 0, 0, 104],
      "AngioFlag": "N",
      "BitsAllocated": 16,
      "BitsStored": 16,
      "BodyPartExamined": "BRAIN",
      "Columns": 832,
      "EchoNumbers": 1,
      "EchoTime": 37.0,
      "EchoTrainLength": 104,
      "FlipAngle": 52.0,
      "HighBit": 15,
      "ImageOrientationPatient": [0.99555661266788, 0.09099537206188, 0.02422546669482, -0.0748561992442, 0.92085477337112, -0.3826526307166],
      "ImagePositionPatient": [-765.36331501437, -877.73065507618, 278.90926309125],
      "ImageType": [
        "ORIGINAL",
        "PRIMARY",
        "M",
        "MB",
        "ND",
        "MOSAIC"
],
      "ImagedNucleus": "1H",
      "ImagingFrequency": 123.258931,
      "InPlanePhaseEncodingDirection": "COL",
      "MRAcquisitionType": "2D",
      "MagneticFieldStrength": 3.0,
      "Manufacturer": "SIEMENS",
      "ManufacturerModelName": "Prisma_fit",
      "Modality": "MR",
      "NumberOfAverages": 1.0,
      "NumberOfPhaseEncodingSteps": 104,
      "PercentPhaseFieldOfView": 100.0,
      "PercentSampling": 100.0,
      "PerformedProcedureStepStartTime": "182110.053000",
      "PhotometricInterpretation": "MONOCHROME2",
      "PixelBandwidth": 2290.0,
      "PixelRepresentation": 0,
      "PixelSpacing": [2.0, 2.0],
      "ProtocolName": "func_task-wedges",
      "RepetitionTime": 1490.0,
      "Rows": 832,
      "SAR": 0.07214015813253,
      "SamplesPerPixel": 1,
      "ScanOptions": "FS",
      "ScanningSequence": "EP",
      "SequenceName": "epfid2d1_104",
      "SequenceVariant": [
        "SK",
        "SS"
],
      "SeriesDescription": "func_task-wedges",
      "SeriesNumber": 10,
      "SeriesTime": "182639.610000",
      "SliceLocation": -31.464855252403,
      "SliceThickness": 2.0,
      "SmallestImagePixelValue": 0,
      "SoftwareVersions": "syngo MR E11",
      "SpacingBetweenSlices": 2.0000000529293,
      "SpecificCharacterSet": "ISO_IR 100",
      "StudyID": "1",
      "StudyTime": "182109.966000",
      "TransmitCoilName": "Body",
      "VariableFlipAngleFlag": "N",
      "WindowCenterWidthExplanation": "Algo1",
      "dBdt": 0.0},
    "slices": {}
  },
  "time": {
    "samples": {
      "AcquisitionNumber": [1, 2, 3, 4, 5, 6, 7, 8, 9, 10, 11, 12, 13, 14, 15, 16, 17, 18, 19, 20, 21, 22, 23, 24, 25, 26, 27, 28, 29, 30, 31, 32, 33, 34, 35, 36, 37, 38, 39, 40, 41, 42, 43, 44, 45, 46, 47, 48, 49, 50, 51, 52, 53, 54, 55, 56, 57, 58, 59, 60, 61, 62, 63, 64, 65, 66, 67, 68, 69, 70, 71, 72, 73, 74, 75, 76, 77, 78, 79, 80, 81, 82, 83, 84, 85, 86, 87, 88, 89, 90, 91, 92, 93, 94, 95, 96, 97, 98, 99, 100, 101, 102, 103, 104, 105, 106, 107, 108, 109, 110, 111, 112, 113, 114, 115, 116, 117, 118, 119, 120, 121, 122, 123, 124, 125, 126, 127, 128, 129, 130, 131, 132, 133, 134, 135, 136, 137, 138, 139, 140, 141, 142, 143, 144, 145, 146, 147, 148, 149, 150, 151, 152, 153, 154, 155, 156, 157, 158, 159, 160, 161, 162, 163, 164, 165, 166, 167, 168, 169, 170, 171, 172, 173, 174, 175, 176, 177, 178, 179, 180, 181, 182, 183, 184, 185, 186, 187, 188, 189, 190, 191, 192, 193, 194, 195, 196, 197, 198, 199, 200, 201, 202],
      "AcquisitionTime": ["182511.672500", "182513.162500", "182514.652500", "182516.142500", "182517.632500", "182519.122500", "182520.612500", "182522.102500", "182523.592500", "182525.082500", "182526.572500", "182528.062500", "182529.552500", "182531.042500", "182532.532500", "182534.022500", "182535.512500", "182537.002500", "182538.492500", "182539.982500", "182541.472500", "182542.962500", "182544.452500", "182545.942500", "182547.432500", "182548.922500", "182550.412500", "182551.902500", "182553.392500", "182554.882500", "182556.372500", "182557.862500", "182559.352500", "182600.842500", "182602.332500", "182603.822500", "182605.312500", "182606.802500", "182608.292500", "182609.782500", "182611.272500", "182612.762500", "182614.252500", "182615.742500", "182617.232500", "182618.722500", "182620.212500", "182621.702500", "182623.192500", "182624.682500", "182626.172500", "182627.662500", "182629.152500", "182630.642500", "182632.132500", "182633.622500", "182635.112500", "182636.602500", "182638.092500", "182639.582500", "182641.072500", "182642.562500", "182644.052500", "182645.542500", "182647.032500", "182648.522500", "182650.012500", "182651.502500", "182652.992500", "182654.482500", "182655.972500", "182657.462500", "182658.952500", "182700.442500", "182701.932500", "182703.422500", "182704.912500", "182706.402500", "182707.892500", "182709.382500", "182710.872500", "182712.362500", "182713.852500", "182715.342500", "182716.832500", "182718.322500", "182719.812500", "182721.302500", "182722.792500", "182724.282500", "182725.772500", "182727.262500", "182728.752500", "182730.242500", "182731.732500", "182733.222500", "182734.712500", "182736.202500", "182737.692500", "182739.182500", "182740.672500", "182742.162500", "182743.652500", "182745.142500", "182746.632500", "182748.122500", "182749.612500", "182751.102500", "182752.592500", "182754.082500", "182755.572500", "182757.062500", "182758.552500", "182800.042500", "182801.532500", "182803.022500", "182804.512500", "182806.002500", "182807.492500", "182808.982500", "182810.472500", "182811.962500", "182813.452500", "182814.942500", "182816.432500", "182817.922500", "182819.412500", "182820.902500", "182822.392500", "182823.882500", "182825.372500", "182826.862500", "182828.352500", "182829.842500", "182831.332500", "182832.822500", "182834.312500", "182835.802500", "182837.292500", "182838.782500", "182840.272500", "182841.762500", "182843.252500", "182844.742500", "182846.232500", "182847.722500", "182849.212500", "182850.702500", "182852.192500", "182853.682500", "182855.172500", "182856.662500", "182858.152500", "182859.642500", "182901.132500", "182902.622500", "182904.112500", "182905.602500", "182907.092500", "182908.582500", "182910.072500", "182911.562500", "182913.052500", "182914.542500", "182916.032500", "182917.522500", "182919.012500", "182920.502500", "182921.992500", "182923.482500", "182924.972500", "182926.462500", "182927.952500", "182929.442500", "182930.932500", "182932.422500", "182933.912500", "182935.402500", "182936.892500", "182938.382500", "182939.872500", "182941.362500", "182942.852500", "182944.342500", "182945.832500", "182947.322500", "182948.812500", "182950.302500", "182951.792500", "182953.282500", "182954.772500", "182956.262500", "182957.752500", "182959.242500", "183000.732500", "183002.222500", "183003.712500", "183005.202500", "183006.692500", "183008.182500", "183009.672500", "183011.162500"],
      "ContentTime": ["182639.614000", "182639.618000", "182639.621000", "182639.624000", "182639.628000", "182639.631000", "182639.635000", "182639.638000", "182639.641000", "182639.645000", "182639.648000", "182639.652000", "182639.655000", "182639.659000", "182639.662000", "182639.666000", "182639.669000", "182639.672000", "182639.676000", "182639.679000", "182639.682000", "182639.686000", "182639.689000", "182639.693000", "182639.696000", "182639.702000", "182639.705000", "182639.709000", "182639.712000", "182639.724000", "182639.728000", "182639.731000", "182639.735000", "182639.738000", "182639.742000", "182659.560000", "182659.564000", "182659.567000", "182659.571000", "182659.574000", "182659.581000", "182659.585000", "182659.588000", "182659.591000", "182659.595000", "182659.608000", "182659.612000", "182659.615000", "182659.619000", "182659.623000", "182659.626000", "182659.630000", "182659.634000", "182659.637000", "182659.640000", "182719.559000", "182719.563000", "182719.567000", "182719.570000", "182719.573000", "182719.577000", "182719.580000", "182719.584000", "182719.587000", "182719.590000", "182719.594000", "182719.597000", "182719.601000", "182719.604000", "182719.608000", "182719.611000", "182719.614000", "182719.618000", "182719.622000", "182719.626000", "182739.559000", "182739.563000", "182739.567000", "182739.570000", "182739.573000", "182739.577000", "182739.580000", "182739.584000", "182739.587000", "182739.591000", "182739.594000", "182739.597000", "182739.601000", "182739.604000", "182739.608000", "182739.611000", "182739.615000", "182739.618000", "182739.621000", "182739.625000", "182819.559000", "182819.563000", "182819.567000", "182819.570000", "182819.573000", "182819.577000", "182819.580000", "182819.584000", "182819.587000", "182819.590000", "182819.594000", "182819.597000", "182819.601000", "182819.604000", "182819.607000", "182819.611000", "182819.614000", "182819.618000", "182819.621000", "182819.624000", "182819.628000", "182819.631000", "182819.635000", "182819.638000", "182819.642000", "182819.645000", "182819.648000", "182819.652000", "182819.656000", "182819.660000", "182859.560000", "182859.564000", "182859.567000", "182859.571000", "182859.575000", "182859.578000", "182859.582000", "182859.585000", "182859.589000", "182859.592000", "182859.595000", "182859.599000", "182859.602000", "182859.606000", "182859.609000", "182859.613000", "182859.616000", "182859.619000", "182859.623000", "182859.626000", "182859.630000", "182859.633000", "182859.637000", "182859.640000", "182859.643000", "182859.647000", "182859.650000", "182939.559000", "182939.563000", "182939.567000", "182939.570000", "182939.574000", "182939.577000", "182939.580000", "182939.584000", "182939.587000", "182939.591000", "182939.594000", "182939.598000", "182939.601000", "182939.604000", "182939.608000", "182939.611000", "182939.615000", "182939.618000", "182939.622000", "182939.625000", "182939.629000", "182939.632000", "182939.636000", "182939.639000", "182939.643000", "182939.646000", "182939.650000", "182959.560000", "182959.563000", "182959.567000", "182959.570000", "182959.574000", "182959.577000", "182959.580000", "182959.584000", "182959.587000", "182959.591000", "182959.594000", "182959.598000", "182959.601000", "183013.100000", "183013.104000", "183013.108000", "183013.111000", "183013.115000", "183013.118000", "183013.122000", "183013.125000", "183013.129000", "183013.133000"],
      "InstanceCreationTime": ["182639.614000", "182639.618000", "182639.621000", "182639.624000", "182639.628000", "182639.631000", "182639.635000", "182639.638000", "182639.641000", "182639.645000", "182639.648000", "182639.652000", "182639.655000", "182639.659000", "182639.662000", "182639.666000", "182639.669000", "182639.672000", "182639.676000", "182639.679000", "182639.682000", "182639.686000", "182639.689000", "182639.693000", "182639.696000", "182639.702000", "182639.705000", "182639.709000", "182639.712000", "182639.724000", "182639.728000", "182639.731000", "182639.735000", "182639.738000", "182639.742000", "182659.560000", "182659.564000", "182659.567000", "182659.571000", "182659.574000", "182659.581000", "182659.585000", "182659.588000", "182659.591000", "182659.595000", "182659.608000", "182659.612000", "182659.615000", "182659.619000", "182659.623000", "182659.626000", "182659.630000", "182659.634000", "182659.637000", "182659.640000", "182719.559000", "182719.563000", "182719.567000", "182719.570000", "182719.573000", "182719.577000", "182719.580000", "182719.584000", "182719.587000", "182719.590000", "182719.594000", "182719.597000", "182719.601000", "182719.604000", "182719.608000", "182719.611000", "182719.614000", "182719.618000", "182719.622000", "182719.626000", "182739.559000", "182739.563000", "182739.567000", "182739.570000", "182739.573000", "182739.577000", "182739.580000", "182739.584000", "182739.587000", "182739.591000", "182739.594000", "182739.597000", "182739.601000", "182739.604000", "182739.608000", "182739.611000", "182739.615000", "182739.618000", "182739.621000", "182739.625000", "182819.559000", "182819.563000", "182819.567000", "182819.570000", "182819.573000", "182819.577000", "182819.580000", "182819.584000", "182819.587000", "182819.590000", "182819.594000", "182819.597000", "182819.601000", "182819.604000", "182819.607000", "182819.611000", "182819.614000", "182819.618000", "182819.621000", "182819.624000", "182819.628000", "182819.631000", "182819.635000", "182819.638000", "182819.642000", "182819.645000", "182819.648000", "182819.652000", "182819.656000", "182819.660000", "182859.560000", "182859.564000", "182859.567000", "182859.571000", "182859.575000", "182859.578000", "182859.582000", "182859.585000", "182859.589000", "182859.592000", "182859.595000", "182859.599000", "182859.602000", "182859.606000", "182859.609000", "182859.613000", "182859.616000", "182859.619000", "182859.623000", "182859.626000", "182859.630000", "182859.633000", "182859.637000", "182859.640000", "182859.643000", "182859.647000", "182859.650000", "182939.559000", "182939.563000", "182939.567000", "182939.570000", "182939.574000", "182939.577000", "182939.580000", "182939.584000", "182939.587000", "182939.591000", "182939.594000", "182939.598000", "182939.601000", "182939.604000", "182939.608000", "182939.611000", "182939.615000", "182939.618000", "182939.622000", "182939.625000", "182939.629000", "182939.632000", "182939.636000", "182939.639000", "182939.643000", "182939.646000", "182939.650000", "182959.560000", "182959.563000", "182959.567000", "182959.570000", "182959.574000", "182959.577000", "182959.580000", "182959.584000", "182959.587000", "182959.591000", "182959.594000", "182959.598000", "182959.601000", "183013.100000", "183013.104000", "183013.108000", "183013.111000", "183013.115000", "183013.118000", "183013.122000", "183013.125000", "183013.129000", "183013.133000"],
      "InstanceNumber": [1, 2, 3, 4, 5, 6, 7, 8, 9, 10, 11, 12, 13, 14, 15, 16, 17, 18, 19, 20, 21, 22, 23, 24, 25, 26, 27, 28, 29, 30, 31, 32, 33, 34, 35, 36, 37, 38, 39, 40, 41, 42, 43, 44, 45, 46, 47, 48, 49, 50, 51, 52, 53, 54, 55, 56, 57, 58, 59, 60, 61, 62, 63, 64, 65, 66, 67, 68, 69, 70, 71, 72, 73, 74, 75, 76, 77, 78, 79, 80, 81, 82, 83, 84, 85, 86, 87, 88, 89, 90, 91, 92, 93, 94, 95, 96, 97, 98, 99, 100, 101, 102, 103, 104, 105, 106, 107, 108, 109, 110, 111, 112, 113, 114, 115, 116, 117, 118, 119, 120, 121, 122, 123, 124, 125, 126, 127, 128, 129, 130, 131, 132, 133, 134, 135, 136, 137, 138, 139, 140, 141, 142, 143, 144, 145, 146, 147, 148, 149, 150, 151, 152, 153, 154, 155, 156, 157, 158, 159, 160, 161, 162, 163, 164, 165, 166, 167, 168, 169, 170, 171, 172, 173, 174, 175, 176, 177, 178, 179, 180, 181, 182, 183, 184, 185, 186, 187, 188, 189, 190, 191, 192, 193, 194, 195, 196, 197, 198, 199, 200, 201, 202],
      "LargestImagePixelValue": [42186, 41169, 41253, 39707, 43295, 39701, 38996, 40706, 42671, 39852, 40010, 39307, 40435, 40094, 39790, 39817, 39582, 39522, 39738, 39495, 39135, 39787, 39494, 39963, 40596, 40618, 39611, 40126, 40309, 39266, 39520, 39551, 39602, 39203, 44265, 39315, 39969, 40085, 39723, 40215, 41418, 41745, 41000, 40516, 40089, 39380, 38938, 39822, 39815, 40136, 40747, 41525, 42406, 42688, 41711, 40651, 40360, 42041, 41581, 38926, 41468, 40488, 40370, 41478, 42531, 42344, 42977, 43123, 41443, 41776, 44299, 43490, 43285, 43247, 43393, 43651, 43354, 43051, 42465, 42425, 41943, 42503, 41619, 40716, 42463, 42484, 42225, 42168, 41827, 41384, 41306, 41067, 40315, 40086, 40288, 41350, 41126, 41150, 41165, 40789, 41286, 41566, 41620, 40595, 41559, 39764, 39748, 40242, 40465, 40891, 40854, 40270, 39899, 40623, 40995, 41445, 41406, 40921, 41123, 41754, 41528, 41727, 41052, 41084, 41488, 40914, 41346, 41456, 41238, 41651, 41926, 43217, 41290, 41087, 41678, 40878, 41271, 41410, 42241, 41410, 41591, 41448, 41322, 41758, 41722, 42298, 42375, 41595, 42522, 41640, 42047, 42335, 42903, 43222, 41878, 41449, 40971, 42093, 43115, 43790, 38646, 40006, 39730, 42470, 43017, 42390, 42412, 42965, 43646, 44434, 44595, 44052, 43888, 44934, 43710, 43142, 43412, 42690, 42393, 42946, 43117, 40461, 40786, 40980, 41186, 44142, 41604, 41076, 41796, 41720, 41952, 39612, 38638, 41063, 41101, 40740, 41883, 42283, 42087, 42000, 42291, 42622],
      "WindowCenter": [10605.0, 10578.0, 10567.0, 10532.0, 10570.0, 10520.0, 10498.0, 10504.0, 10507.0, 10494.0, 10522.0, 10528.0, 10539.0, 10530.0, 10522.0, 10514.0, 10530.0, 10549.0, 10545.0, 10520.0, 10512.0, 10512.0, 10507.0, 10521.0, 10533.0, 10531.0, 10512.0, 10502.0, 10518.0, 10522.0, 10533.0, 10513.0, 10505.0, 10495.0, 10550.0, 10518.0, 10534.0, 10544.0, 10534.0, 10533.0, 10538.0, 10540.0, 10548.0, 10555.0, 10561.0, 10551.0, 10529.0, 10541.0, 10542.0, 10555.0, 10542.0, 10552.0, 10562.0, 10573.0, 10560.0, 10543.0, 10535.0, 10562.0, 10568.0, 10534.0, 10533.0, 10513.0, 10502.0, 10528.0, 10543.0, 10577.0, 10577.0, 10582.0, 10555.0, 10538.0, 10564.0, 10560.0, 10562.0, 10578.0, 10579.0, 10577.0, 10573.0, 10564.0, 10558.0, 10557.0, 10561.0, 10566.0, 10563.0, 10545.0, 10559.0, 10576.0, 10579.0, 10582.0, 10571.0, 10559.0, 10558.0, 10554.0, 10549.0, 10549.0, 10547.0, 10583.0, 10595.0, 10598.0, 10579.0, 10566.0, 10560.0, 10575.0, 10575.0, 10569.0, 10587.0, 10575.0, 10594.0, 10613.0, 10634.0, 10641.0, 10625.0, 10601.0, 10590.0, 10585.0, 10594.0, 10612.0, 10603.0, 10593.0, 10590.0, 10594.0, 10595.0, 10598.0, 10601.0, 10600.0, 10612.0, 10601.0, 10599.0, 10607.0, 10598.0, 10603.0, 10594.0, 10621.0, 10617.0, 10617.0, 10642.0, 10636.0, 10608.0, 10614.0, 10653.0, 10644.0, 10652.0, 10654.0, 10647.0, 10625.0, 10601.0, 10619.0, 10622.0, 10607.0, 10599.0, 10580.0, 10585.0, 10592.0, 10591.0, 10596.0, 10562.0, 10546.0, 10528.0, 10538.0, 10559.0, 10574.0, 10509.0, 10559.0, 10554.0, 10580.0, 10578.0, 10562.0, 10562.0, 10569.0, 10589.0, 10615.0, 10604.0, 10580.0, 10570.0, 10578.0, 10582.0, 10594.0, 10598.0, 10587.0, 10572.0, 10575.0, 10595.0, 10537.0, 10560.0, 10557.0, 10567.0, 10583.0, 10528.0, 10530.0, 10540.0, 10553.0, 10571.0, 10524.0, 10529.0, 10565.0, 10574.0, 10576.0, 10605.0, 10608.0, 10590.0, 10571.0, 10560.0, 10577.0],
      "WindowWidth": [22549.0, 22469.0, 22433.0, 22354.0, 22430.0, 22321.0, 22268.0, 22278.0, 22279.0, 22256.0, 22329.0, 22346.0, 22361.0, 22339.0, 22322.0, 22303.0, 22340.0, 22384.0, 22374.0, 22318.0, 22300.0, 22295.0, 22288.0, 22320.0, 22341.0, 22334.0, 22296.0, 22270.0, 22310.0, 22322.0, 22349.0, 22297.0, 22281.0, 22257.0, 22376.0, 22312.0, 22345.0, 22373.0, 22354.0, 22340.0, 22351.0, 22350.0, 22373.0, 22394.0, 22410.0, 22394.0, 22339.0, 22365.0, 22373.0, 22403.0, 22364.0, 22382.0, 22402.0, 22430.0, 22401.0, 22362.0, 22341.0, 22394.0, 22416.0, 22351.0, 22333.0, 22291.0, 22270.0, 22323.0, 22359.0, 22444.0, 22437.0, 22443.0, 22385.0, 22345.0, 22405.0, 22394.0, 22398.0, 22438.0, 22431.0, 22426.0, 22418.0, 22397.0, 22389.0, 22386.0, 22397.0, 22407.0, 22408.0, 22362.0, 22388.0, 22431.0, 22437.0, 22447.0, 22417.0, 22393.0, 22390.0, 22392.0, 22386.0, 22375.0, 22369.0, 22451.0, 22477.0, 22487.0, 22438.0, 22411.0, 22394.0, 22441.0, 22434.0, 22434.0, 22469.0, 22446.0, 22486.0, 22524.0, 22577.0, 22590.0, 22554.0, 22497.0, 22476.0, 22456.0, 22487.0, 22518.0, 22502.0, 22475.0, 22466.0, 22475.0, 22478.0, 22484.0, 22503.0, 22490.0, 22519.0, 22494.0, 22485.0, 22509.0, 22483.0, 22499.0, 22470.0, 22540.0, 22530.0, 22532.0, 22587.0, 22576.0, 22506.0, 22518.0, 22611.0, 22596.0, 22613.0, 22618.0, 22605.0, 22546.0, 22492.0, 22532.0, 22539.0, 22504.0, 22476.0, 22433.0, 22447.0, 22469.0, 22461.0, 22479.0, 22397.0, 22359.0, 22319.0, 22333.0, 22379.0, 22414.0, 22288.0, 22397.0, 22393.0, 22443.0, 22433.0, 22395.0, 22393.0, 22409.0, 22456.0, 22514.0, 22492.0, 22436.0, 22409.0, 22433.0, 22436.0, 22467.0, 22477.0, 22462.0, 22417.0, 22422.0, 22479.0, 22347.0, 22391.0, 22384.0, 22409.0, 22440.0, 22311.0, 22318.0, 22339.0, 22376.0, 22424.0, 22322.0, 22338.0, 22403.0, 22425.0, 22430.0, 22495.0, 22513.0, 22461.0, 22414.0, 22387.0, 22436.0]
    },
    "slices": {}
  }
}