{
  "AcquisitionMatrixPE": 104,
  "AcquisitionNumber": 1,
  "AcquisitionTime": "18:25:11.672500",
  "BandwidthPerPixelPhaseEncode": 17.17,
  "BaseResolution": 104,
  "BodyPartExamined": "BRAIN",
  "CoilString": "HC1-7;NC1_2",
  "ConsistencyInfo": "N4_VE11C_LATEST_20160120",
  "ConversionSoftware": "dcm2niix",
  "ConversionSoftwareVersion": "v1.0.20190902",
  "DerivedVendorReportedEchoSpacing": 0.000560011,
  "DeviceSerialNumber": "167006",
  "DwellTime": 2.1e-06,
  "EchoTime": 0.037,
  "EchoTrainLength": 104,
  "EffectiveEchoSpacing": 0.000560011,
  "FlipAngle": 52,
  "ImageComments": "Unaliased_MB4_PE3_LB",
  "ImageOrientationPatientDICOM": [0.995557, 0.0909954, 0.0242255, -0.0748562, 0.920855, -0.382653],
  "ImageType": [
    "ORIGINAL",
    "PRIMARY",
    "P",
    "MB",
    "ND",
    "MOSAIC"
],
  "ImagingFrequency": 123.259,
  "InPlanePhaseEncodingDirectionDICOM": "COL",
  "InstitutionAddress": "Chemin_Queen-Mary_4565_Montreal_District_CA_H3W_1W5",
  "InstitutionName": "IUGM",
  "InstitutionalDepartmentName": "Department",
  "MRAcquisitionType": "2D",
  "MagneticFieldStrength": 3,
  "Manufacturer": "Siemens",
  "ManufacturersModelName": "Prisma_fit",
  "Modality": "MR",
  "MultibandAccelerationFactor": 4,
  "PartialFourier": 1,
  "PatientPosition": "HFS",
  "PercentPhaseFOV": 100,
  "PhaseEncodingDirection": "j",
  "PhaseEncodingSteps": 104,
  "PhaseResolution": 1,
  "PixelBandwidth": 2290,
  "ProcedureStepDescription": "localizers_retinotopy",
  "ProtocolName": "func_task-wedges",
  "PulseSequenceDetails": "%CustomerSeq%_cmrr_mbep2d_bold",
  "ReceiveCoilActiveElements": "HC1-7;NC1,2",
  "ReceiveCoilName": "HeadNeck_64",
  "ReconMatrixPE": 104,
  "RepetitionTime": 1.49,
  "SAR": 0.0721402,
  "ScanOptions": "FS",
  "ScanningSequence": "EP",
  "SequenceName": "epfid2d1_104",
  "SequenceVariant": "SK_SS",
  "SeriesDescription": "func_task-wedges",
  "SeriesNumber": 11,
  "ShimSetting": [624, -7189, -8805, 633, 70, -2, -63, 2],
  "SliceThickness": 2,
  "SliceTiming": [0, 0.7825, 0.0975, 0.8825, 0.195, 0.98, 0.2925, 1.0775, 0.3925, 1.175, 0.49, 1.2725, 0.5875, 1.37, 0.685, 0, 0.7825, 0.0975, 0.8825, 0.195, 0.98, 0.2925, 1.0775, 0.3925, 1.175, 0.49, 1.2725, 0.5875, 1.37, 0.685, 0, 0.7825, 0.0975, 0.8825, 0.195, 0.98, 0.2925, 1.0775, 0.3925, 1.175, 0.49, 1.2725, 0.5875, 1.37, 0.685, 0, 0.7825, 0.0975, 0.8825, 0.195, 0.98, 0.2925, 1.0775, 0.3925, 1.175, 0.49, 1.2725, 0.5875, 1.37, 0.685],
  "SoftwareVersions": "syngo_MR_E11",
  "SpacingBetweenSlices": 2,
  "StationName": "MRC35049",
  "TaskName": "wedges",
  "TotalReadoutTime": 0.0576811,
  "TxRefAmp": 312.208,
  "WipMemBlock": "fa2bd40c-73d2-4b70-b2bf-0fc61141f625||Sequence: R016 ve11c/master r/e634e98; Dec 19 2017 11:00:25 by eja",
  "dcmmeta_affine": [
    [-1.9911131858825684, -0.14971239864826202, 0.11425551027059555, 110.5137939453125],
    [-0.18199074268341064, 1.8417094945907593, -0.7582778930664062, -48.59233474731445],
    [0.048450931906700134, 0.7653052806854248, 1.8471492528915405, -60.85215377807617],
    [0.0, 0.0, 0.0, 1.0]
],
  "dcmmeta_reorient_transform": [
    [0.0, -1.0, 0.0, 103.0],
    [1.0, 0.0, 0.0, 0.0],
    [0.0, 0.0, 1.0, 0.0],
    [0.0, 0.0, 0.0, 1.0]
],
  "dcmmeta_shape": [104, 104, 60, 202],
  "dcmmeta_slice_dim": 2,
  "dcmmeta_version": 0.6,
  "global": {
    "const": {
      "AcquisitionMatrix": [104, 0, 0, 104],
      "AngioFlag": "N",
      "BitsAllocated": 16,
      "BitsStored": 16,
      "BodyPartExamined": "BRAIN",
      "Columns": 832,
      "EchoNumbers": 1,
      "EchoTime": 37.0,
      "EchoTrainLength": 104,
      "FlipAngle": 52.0,
      "HighBit": 15,
      "ImageOrientationPatient": [0.99555661266788, 0.09099537206188, 0.02422546669482, -0.0748561992442, 0.92085477337112, -0.3826526307166],
      "ImagePositionPatient": [-765.36331501437, -877.73065507618, 278.90926309125],
      "ImageType": [
        "ORIGINAL",
        "PRIMARY",
        "P",
        "MB",
        "ND",
        "MOSAIC"
],
      "ImagedNucleus": "1H",
      "ImagingFrequency": 123.258931,
      "InPlanePhaseEncodingDirection": "COL",
      "LargestImagePixelValue": 4095,
      "MRAcquisitionType": "2D",
      "MagneticFieldStrength": 3.0,
      "Manufacturer": "SIEMENS",
      "ManufacturerModelName": "Prisma_fit",
      "Modality": "MR",
      "NumberOfAverages": 1.0,
      "NumberOfPhaseEncodingSteps": 104,
      "PercentPhaseFieldOfView": 100.0,
      "PercentSampling": 100.0,
      "PerformedProcedureStepStartTime": "182110.053000",
      "PhotometricInterpretation": "MONOCHROME2",
      "PixelBandwidth": 2290.0,
      "PixelRepresentation": 0,
      "PixelSpacing": [2.0, 2.0],
      "ProtocolName": "func_task-wedges",
      "RepetitionTime": 1490.0,
      "RescaleIntercept": -4096.0,
      "RescaleSlope": 2.0,
      "RescaleType": "US",
      "Rows": 832,
      "SAR": 0.07214015813253,
      "SamplesPerPixel": 1,
      "ScanOptions": "FS",
      "ScanningSequence": "EP",
      "SequenceName": "epfid2d1_104",
      "SequenceVariant": [
        "SK",
        "SS"
],
      "SeriesDescription": "func_task-wedges",
      "SeriesNumber": 11,
      "SeriesTime": "182639.804000",
      "SliceLocation": -31.464855252403,
      "SliceThickness": 2.0,
      "SmallestImagePixelValue": 0,
      "SoftwareVersions": "syngo MR E11",
      "SpacingBetweenSlices": 2.0000000529293,
      "SpecificCharacterSet": "ISO_IR 100",
      "StudyID": "1",
      "StudyTime": "182109.966000",
      "TransmitCoilName": "Body",
      "VariableFlipAngleFlag": "N",
      "WindowCenterWidthExplanation": "Algo1",
      "dBdt": 0.0},
    "slices": {}
  },
  "time": {
    "samples": {
      "AcquisitionNumber": [1, 2, 3, 4, 5, 6, 7, 8, 9, 10, 11, 12, 13, 14, 15, 16, 17, 18, 19, 20, 21, 22, 23, 24, 25, 26, 27, 28, 29, 30, 31, 32, 33, 34, 35, 36, 37, 38, 39, 40, 41, 42, 43, 44, 45, 46, 47, 48, 49, 50, 51, 52, 53, 54, 55, 56, 57, 58, 59, 60, 61, 62, 63, 64, 65, 66, 67, 68, 69, 70, 71, 72, 73, 74, 75, 76, 77, 78, 79, 80, 81, 82, 83, 84, 85, 86, 87, 88, 89, 90, 91, 92, 93, 94, 95, 96, 97, 98, 99, 100, 101, 102, 103, 104, 105, 106, 107, 108, 109, 110, 111, 112, 113, 114, 115, 116, 117, 118, 119, 120, 121, 122, 123, 124, 125, 126, 127, 128, 129, 130, 131, 132, 133, 134, 135, 136, 137, 138, 139, 140, 141, 142, 143, 144, 145, 146, 147, 148, 149, 150, 151, 152, 153, 154, 155, 156, 157, 158, 159, 160, 161, 162, 163, 164, 165, 166, 167, 168, 169, 170, 171, 172, 173, 174, 175, 176, 177, 178, 179, 180, 181, 182, 183, 184, 185, 186, 187, 188, 189, 190, 191, 192, 193, 194, 195, 196, 197, 198, 199, 200, 201, 202],
      "AcquisitionTime": ["182511.672500", "182513.162500", "182514.652500", "182516.142500", "182517.632500", "182519.122500", "182520.612500", "182522.102500", "182523.592500", "182525.082500", "182526.572500", "182528.062500", "182529.552500", "182531.042500", "182532.532500", "182534.022500", "182535.512500", "182537.002500", "182538.492500", "182539.982500", "182541.472500", "182542.962500", "182544.452500", "182545.942500", "182547.432500", "182548.922500", "182550.412500", "182551.902500", "182553.392500", "182554.882500", "182556.372500", "182557.862500", "182559.352500", "182600.842500", "182602.332500", "182603.822500", "182605.312500", "182606.802500", "182608.292500", "182609.782500", "182611.272500", "182612.762500", "182614.252500", "182615.742500", "182617.232500", "182618.722500", "182620.212500", "182621.702500", "182623.192500", "182624.682500", "182626.172500", "182627.662500", "182629.152500", "182630.642500", "182632.132500", "182633.622500", "182635.112500", "182636.602500", "182638.092500", "182639.582500", "182641.072500", "182642.562500", "182644.052500", "182645.542500", "182647.032500", "182648.522500", "182650.012500", "182651.502500", "182652.992500", "182654.482500", "182655.972500", "182657.462500", "182658.952500", "182700.442500", "182701.932500", "182703.422500", "182704.912500", "182706.402500", "182707.892500", "182709.382500", "182710.872500", "182712.362500", "182713.852500", "182715.342500", "182716.832500", "182718.322500", "182719.812500", "182721.302500", "182722.792500", "182724.282500", "182725.772500", "182727.262500", "182728.752500", "182730.242500", "182731.732500", "182733.222500", "182734.712500", "182736.202500", "182737.692500", "182739.182500", "182740.672500", "182742.162500", "182743.652500", "182745.142500", "182746.632500", "182748.122500", "182749.612500", "182751.102500", "182752.592500", "182754.082500", "182755.572500", "182757.062500", "182758.552500", "182800.042500", "182801.532500", "182803.022500", "182804.512500", "182806.002500", "182807.492500", "182808.982500", "182810.472500", "182811.962500", "182813.452500", "182814.942500", "182816.432500", "182817.922500", "182819.412500", "182820.902500", "182822.392500", "182823.882500", "182825.372500", "182826.862500", "182828.352500", "182829.842500", "182831.332500", "182832.822500", "182834.312500", "182835.802500", "182837.292500", "182838.782500", "182840.272500", "182841.762500", "182843.252500", "182844.742500", "182846.232500", "182847.722500", "182849.212500", "182850.702500", "182852.192500", "182853.682500", "182855.172500", "182856.662500", "182858.152500", "182859.642500", "182901.132500", "182902.622500", "182904.112500", "182905.602500", "182907.092500", "182908.582500", "182910.072500", "182911.562500", "182913.052500", "182914.542500", "182916.032500", "182917.522500", "182919.012500", "182920.502500", "182921.992500", "182923.482500", "182924.972500", "182926.462500", "182927.952500", "182929.442500", "182930.932500", "182932.422500", "182933.912500", "182935.402500", "182936.892500", "182938.382500", "182939.872500", "182941.362500", "182942.852500", "182944.342500", "182945.832500", "182947.322500", "182948.812500", "182950.302500", "182951.792500", "182953.282500", "182954.772500", "182956.262500", "182957.752500", "182959.242500", "183000.732500", "183002.222500", "183003.712500", "183005.202500", "183006.692500", "183008.182500", "183009.672500", "183011.162500"],
      "ContentTime": ["182639.806000", "182639.809000", "182639.811000", "182639.814000", "182639.816000", "182639.819000", "182639.822000", "182639.825000", "182639.828000", "182639.831000", "182639.833000", "182639.836000", "182639.838000", "182639.841000", "182639.843000", "182639.846000", "182639.849000", "182639.851000", "182639.854000", "182639.856000", "182639.859000", "182639.861000", "182639.864000", "182639.871000", "182639.874000", "182639.876000", "182639.879000", "182639.881000", "182639.884000", "182639.886000", "182639.889000", "182639.892000", "182639.894000", "182639.897000", "182639.899000", "182659.677000", "182659.680000", "182659.682000", "182659.685000", "182659.687000", "182659.690000", "182659.692000", "182659.695000", "182659.698000", "182659.700000", "182659.703000", "182659.705000", "182659.708000", "182659.710000", "182659.713000", "182659.715000", "182659.724000", "182659.727000", "182659.729000", "182659.732000", "182719.670000", "182719.673000", "182719.676000", "182719.678000", "182719.681000", "182719.683000", "182719.686000", "182719.689000", "182719.691000", "182719.694000", "182719.696000", "182719.699000", "182719.701000", "182719.704000", "182719.706000", "182719.709000", "182719.711000", "182719.714000", "182719.717000", "182719.719000", "182739.663000", "182739.666000", "182739.669000", "182739.671000", "182739.674000", "182739.676000", "182739.679000", "182739.682000", "182739.684000", "182739.687000", "182739.689000", "182739.692000", "182739.694000", "182739.697000", "182739.699000", "182739.702000", "182739.704000", "182739.707000", "182739.710000", "182739.712000", "182819.718000", "182819.726000", "182819.728000", "182819.731000", "182819.734000", "182819.736000", "182819.739000", "182819.741000", "182819.744000", "182819.746000", "182819.749000", "182819.751000", "182819.754000", "182819.756000", "182819.759000", "182819.761000", "182819.764000", "182819.767000", "182819.769000", "182819.772000", "182819.774000", "182819.777000", "182819.780000", "182819.782000", "182819.785000", "182819.787000", "182819.790000", "182819.793000", "182819.795000", "182819.798000", "182859.720000", "182859.723000", "182859.725000", "182859.728000", "182859.731000", "182859.733000", "182859.736000", "182859.738000", "182859.741000", "182859.743000", "182859.746000", "182859.748000", "182859.751000", "182859.753000", "182859.756000", "182859.759000", "182859.761000", "182859.764000", "182859.766000", "182859.769000", "182859.771000", "182859.774000", "182859.776000", "182859.779000", "182859.782000", "182859.784000", "182859.787000", "182939.705000", "182939.708000", "182939.710000", "182939.713000", "182939.715000", "182939.718000", "182939.721000", "182939.723000", "182939.726000", "182939.728000", "182939.731000", "182939.733000", "182939.736000", "182939.738000", "182939.741000", "182939.744000", "182939.746000", "182939.749000", "182939.751000", "182939.754000", "182939.757000", "182939.759000", "182939.762000", "182939.765000", "182939.767000", "182939.770000", "182939.772000", "182959.634000", "182959.637000", "182959.639000", "182959.674000", "182959.677000", "182959.680000", "182959.682000", "182959.685000", "182959.688000", "182959.691000", "182959.694000", "182959.697000", "182959.699000", "183013.164000", "183013.167000", "183013.170000", "183013.173000", "183013.183000", "183013.186000", "183013.188000", "183013.191000", "183013.194000", "183013.196000"],
      "InstanceCreationTime": ["182639.806000", "182639.809000", "182639.811000", "182639.814000", "182639.816000", "182639.819000", "182639.822000", "182639.825000", "182639.828000", "182639.831000", "182639.833000", "182639.836000", "182639.838000", "182639.841000", "182639.843000", "182639.846000", "182639.849000", "182639.851000", "182639.854000", "182639.856000", "182639.859000", "182639.861000", "182639.864000", "182639.871000", "182639.874000", "182639.876000", "182639.879000", "182639.881000", "182639.884000", "182639.886000", "182639.889000", "182639.892000", "182639.894000", "182639.897000", "182639.899000", "182659.677000", "182659.680000", "182659.682000", "182659.685000", "182659.687000", "182659.690000", "182659.692000", "182659.695000", "182659.698000", "182659.700000", "182659.703000", "182659.705000", "182659.708000", "182659.710000", "182659.713000", "182659.715000", "182659.724000", "182659.727000", "182659.729000", "182659.732000", "182719.670000", "182719.673000", "182719.676000", "182719.678000", "182719.681000", "182719.683000", "182719.686000", "182719.689000", "182719.691000", "182719.694000", "182719.696000", "182719.699000", "182719.701000", "182719.704000", "182719.706000", "182719.709000", "182719.711000", "182719.714000", "182719.717000", "182719.719000", "182739.663000", "182739.666000", "182739.669000", "182739.671000", "182739.674000", "182739.676000", "182739.679000", "182739.682000", "182739.684000", "182739.687000", "182739.689000", "182739.692000", "182739.694000", "182739.697000", "182739.699000", "182739.702000", "182739.704000", "182739.707000", "182739.710000", "182739.712000", "182819.718000", "182819.726000", "182819.728000", "182819.731000", "182819.734000", "182819.736000", "182819.739000", "182819.741000", "182819.744000", "182819.746000", "182819.749000", "182819.751000", "182819.754000", "182819.756000", "182819.759000", "182819.761000", "182819.764000", "182819.767000", "182819.769000", "182819.772000", "182819.774000", "182819.777000", "182819.780000", "182819.782000", "182819.785000", "182819.787000", "182819.790000", "182819.793000", "182819.795000", "182819.798000", "182859.720000", "182859.723000", "182859.725000", "182859.728000", "182859.731000", "182859.733000", "182859.736000", "182859.738000", "182859.741000", "182859.743000", "182859.746000", "182859.748000", "182859.751000", "182859.753000", "182859.756000", "182859.759000", "182859.761000", "182859.764000", "182859.766000", "182859.769000", "182859.771000", "182859.774000", "182859.776000", "182859.779000", "182859.782000", "182859.784000", "182859.787000", "182939.705000", "182939.708000", "182939.710000", "182939.713000", "182939.715000", "182939.718000", "182939.721000", "182939.723000", "182939.726000", "182939.728000", "182939.731000", "182939.733000", "182939.736000", "182939.738000", "182939.741000", "182939.744000", "182939.746000", "182939.749000", "182939.751000", "182939.754000", "182939.757000", "182939.759000", "182939.762000", "182939.765000", "182939.767000", "182939.770000", "182939.772000", "182959.634000", "182959.637000", "182959.639000", "182959.674000", "182959.677000", "182959.680000", "182959.682000", "182959.685000", "182959.688000", "182959.691000", "182959.694000", "182959.697000", "182959.699000", "183013.164000", "183013.167000", "183013.170000", "183013.173000", "183013.183000", "183013.186000", "183013.188000", "183013.191000", "183013.194000", "183013.196000"],
      "InstanceNumber": [1, 2, 3, 4, 5, 6, 7, 8, 9, 10, 11, 12, 13, 14, 15, 16, 17, 18, 19, 20, 21, 22, 23, 24, 25, 26, 27, 28, 29, 30, 31, 32, 33, 34, 35, 36, 37, 38, 39, 40, 41, 42, 43, 44, 45, 46, 47, 48, 49, 50, 51, 52, 53, 54, 55, 56, 57, 58, 59, 60, 61, 62, 63, 64, 65, 66, 67, 68, 69, 70, 71, 72, 73, 74, 75, 76, 77, 78, 79, 80, 81, 82, 83, 84, 85, 86, 87, 88, 89, 90, 91, 92, 93, 94, 95, 96, 97, 98, 99, 100, 101, 102, 103, 104, 105, 106, 107, 108, 109, 110, 111, 112, 113, 114, 115, 116, 117, 118, 119, 120, 121, 122, 123, 124, 125, 126, 127, 128, 129, 130, 131, 132, 133, 134, 135, 136, 137, 138, 139, 140, 141, 142, 143, 144, 145, 146, 147, 148, 149, 150, 151, 152, 153, 154, 155, 156, 157, 158, 159, 160, 161, 162, 163, 164, 165, 166, 167, 168, 169, 170, 171, 172, 173, 174, 175, 176, 177, 178, 179, 180, 181, 182, 183, 184, 185, 186, 187, 188, 189, 190, 191, 192, 193, 194, 195, 196, 197, 198, 199, 200, 201, 202],
      "WindowCenter": [4836.0, 4834.0, 4862.0, 4864.0, 4832.0, 4828.0, 4798.0, 4800.0, 4778.0, 4800.0, 4800.0, 4832.0, 4836.0, 4834.0, 4834.0, 4830.0, 4830.0, 4828.0, 4800.0, 4800.0, 4800.0, 4800.0, 4804.0, 4828.0, 4826.0, 4826.0, 4824.0, 4798.0, 4798.0, 4802.0, 4824.0, 4826.0, 4802.0, 4802.0, 4826.0, 4802.0, 4798.0, 4804.0, 4802.0, 4798.0, 4800.0, 4796.0, 4800.0, 4798.0, 4796.0, 4798.0, 4776.0, 4802.0, 4826.0, 4826.0, 4802.0, 4800.0, 4800.0, 4798.0, 4798.0, 4772.0, 4778.0, 4798.0, 4800.0, 4828.0, 4826.0, 4798.0, 4802.0, 4796.0, 4796.0, 4798.0, 4796.0, 4800.0, 4800.0, 4802.0, 4822.0, 4800.0, 4802.0, 4800.0, 4798.0, 4798.0, 4796.0, 4796.0, 4796.0, 4802.0, 4802.0, 4798.0, 4800.0, 4800.0, 4796.0, 4794.0, 4796.0, 4796.0, 4798.0, 4794.0, 4802.0, 4798.0, 4800.0, 4796.0, 4798.0, 4796.0, 4794.0, 4798.0, 4798.0, 4794.0, 4794.0, 4802.0, 4802.0, 4800.0, 4800.0, 4796.0, 4770.0, 4770.0, 4770.0, 4798.0, 4796.0, 4792.0, 4798.0, 4798.0, 4800.0, 4796.0, 4796.0, 4794.0, 4772.0, 4792.0, 4796.0, 4796.0, 4798.0, 4794.0, 4798.0, 4796.0, 4794.0, 4800.0, 4798.0, 4796.0, 4796.0, 4796.0, 4794.0, 4794.0, 4798.0, 4794.0, 4802.0, 4800.0, 4800.0, 4830.0, 4802.0, 4796.0, 4798.0, 4772.0, 4770.0, 4798.0, 4798.0, 4796.0, 4776.0, 4776.0, 4800.0, 4824.0, 4826.0, 4800.0, 4794.0, 4794.0, 4772.0, 4776.0, 4774.0, 4774.0, 4774.0, 4804.0, 4858.0, 4864.0, 4858.0, 4798.0, 4772.0, 4774.0, 4772.0, 4772.0, 4792.0, 4796.0, 4800.0, 4796.0, 4796.0, 4794.0, 4796.0, 4796.0, 4772.0, 4770.0, 4792.0, 4794.0, 4794.0, 4794.0, 4792.0, 4794.0, 4790.0, 4772.0, 4772.0, 4768.0, 4794.0, 4794.0, 4798.0, 4794.0, 4772.0, 4794.0, 4792.0, 4792.0, 4792.0, 4770.0, 4792.0, 4792.0],
      "WindowWidth": [18646.0, 18654.0, 18688.0, 18680.0, 18662.0, 18654.0, 18616.0, 18608.0, 18580.0, 18610.0, 18620.0, 18660.0, 18662.0, 18656.0, 18662.0, 18656.0, 18654.0, 18654.0, 18622.0, 18618.0, 18614.0, 18614.0, 18618.0, 18656.0, 18656.0, 18654.0, 18654.0, 18618.0, 18612.0, 18624.0, 18652.0, 18654.0, 18622.0, 18618.0, 18656.0, 18622.0, 18616.0, 18618.0, 18624.0, 18618.0, 18620.0, 18618.0, 18622.0, 18622.0, 18618.0, 18616.0, 18580.0, 18618.0, 18656.0, 18654.0, 18624.0, 18618.0, 18624.0, 18620.0, 18616.0, 18580.0, 18584.0, 18618.0, 18620.0, 18658.0, 18658.0, 18618.0, 18624.0, 18614.0, 18610.0, 18614.0, 18616.0, 18620.0, 18620.0, 18620.0, 18654.0, 18620.0, 18620.0, 18622.0, 18616.0, 18622.0, 18616.0, 18616.0, 18612.0, 18628.0, 18622.0, 18622.0, 18622.0, 18612.0, 18614.0, 18616.0, 18618.0, 18614.0, 18616.0, 18618.0, 18622.0, 18620.0, 18624.0, 18618.0, 18622.0, 18614.0, 18612.0, 18622.0, 18622.0, 18618.0, 18616.0, 18626.0, 18624.0, 18624.0, 18620.0, 18618.0, 18586.0, 18582.0, 18584.0, 18616.0, 18622.0, 18618.0, 18622.0, 18616.0, 18622.0, 18618.0, 18620.0, 18618.0, 18584.0, 18612.0, 18618.0, 18618.0, 18622.0, 18618.0, 18618.0, 18620.0, 18614.0, 18624.0, 18622.0, 18622.0, 18618.0, 18614.0, 18612.0, 18616.0, 18618.0, 18614.0, 18618.0, 18616.0, 18622.0, 18660.0, 18622.0, 18618.0, 18614.0, 18576.0, 18574.0, 18620.0, 18620.0, 18626.0, 18582.0, 18576.0, 18614.0, 18658.0, 18658.0, 18628.0, 18618.0, 18618.0, 18580.0, 18578.0, 18578.0, 18576.0, 18574.0, 18624.0, 18688.0, 18692.0, 18692.0, 18622.0, 18584.0, 18578.0, 18580.0, 18586.0, 18616.0, 18618.0, 18622.0, 18618.0, 18618.0, 18622.0, 18618.0, 18622.0, 18584.0, 18584.0, 18616.0, 18618.0, 18618.0, 18620.0, 18618.0, 18622.0, 18616.0, 18588.0, 18588.0, 18586.0, 18622.0, 18616.0, 18622.0, 18618.0, 18586.0, 18618.0, 18618.0, 18618.0, 18616.0, 18584.0, 18616.0, 18618.0]
    },
    "slices": {}
  }
}