{
  "AcquisitionMatrixPE": 104,
  "AcquisitionNumber": 1,
  "AcquisitionTime": "18:24:10.542500",
  "BandwidthPerPixelPhaseEncode": 17.17,
  "BaseResolution": 104,
  "BodyPartExamined": "BRAIN",
  "CoilString": "HC1-7;NC1_2",
  "ConsistencyInfo": "N4_VE11C_LATEST_20160120",
  "ConversionSoftware": "dcm2niix",
  "ConversionSoftwareVersion": "v1.0.20190902",
  "DerivedVendorReportedEchoSpacing": 0.000560011,
  "DeviceSerialNumber": "167006",
  "DwellTime": 2.1e-06,
  "EchoTime": 0.037,
  "EchoTrainLength": 104,
  "EffectiveEchoSpacing": 0.000560011,
  "FlipAngle": 52,
  "ImageComments": "Unaliased_MB4_PE3_LB",
  "ImageOrientationPatientDICOM": [0.997745, 0.0545484, 0.0391158, -0.0332729, 0.908033, -0.417576],
  "ImageType": [
    "ORIGINAL",
    "PRIMARY",
    "P",
    "MB",
    "ND",
    "MOSAIC"
],
  "ImagingFrequency": 123.259,
  "InPlanePhaseEncodingDirectionDICOM": "COL",
  "InstitutionAddress": "Chemin_Queen-Mary_4565_Montreal_District_CA_H3W_1W5",
  "InstitutionName": "IUGM",
  "InstitutionalDepartmentName": "Department",
  "MRAcquisitionType": "2D",
  "MagneticFieldStrength": 3,
  "Manufacturer": "Siemens",
  "ManufacturersModelName": "Prisma_fit",
  "Modality": "MR",
  "MultibandAccelerationFactor": 4,
  "PartialFourier": 1,
  "PatientPosition": "HFS",
  "PercentPhaseFOV": 100,
  "PhaseEncodingDirection": "j",
  "PhaseEncodingSteps": 104,
  "PhaseResolution": 1,
  "PixelBandwidth": 2290,
  "ProcedureStepDescription": "localizers_retinotopy",
  "ProtocolName": "func_task-rings",
  "PulseSequenceDetails": "%CustomerSeq%_cmrr_mbep2d_bold",
  "ReceiveCoilActiveElements": "HC1-7;NC1,2",
  "ReceiveCoilName": "HeadNeck_64",
  "ReconMatrixPE": 104,
  "RepetitionTime": 1.49,
  "SAR": 0.0369759,
  "ScanOptions": "FS",
  "ScanningSequence": "EP",
  "SequenceName": "epfid2d1_104",
  "SequenceVariant": "SK_SS",
  "SeriesDescription": "func_task-rings",
  "SeriesNumber": 14,
  "ShimSetting": [628, -7208, -8844, 544, 79, 28, -74, 1],
  "SliceThickness": 2,
  "SliceTiming": [0, 0.785, 0.0975, 0.8825, 0.1975, 0.98, 0.295, 1.0775, 0.3925, 1.175, 0.49, 1.275, 0.5875, 1.3725, 0.6875, 0, 0.785, 0.0975, 0.8825, 0.1975, 0.98, 0.295, 1.0775, 0.3925, 1.175, 0.49, 1.275, 0.5875, 1.3725, 0.6875, 0, 0.785, 0.0975, 0.8825, 0.1975, 0.98, 0.295, 1.0775, 0.3925, 1.175, 0.49, 1.275, 0.5875, 1.3725, 0.6875, 0, 0.785, 0.0975, 0.8825, 0.1975, 0.98, 0.295, 1.0775, 0.3925, 1.175, 0.49, 1.275, 0.5875, 1.3725, 0.6875],
  "SoftwareVersions": "syngo_MR_E11",
  "SpacingBetweenSlices": 2,
  "StationName": "MRC35049",
  "TaskName": "rings",
  "TotalReadoutTime": 0.0576811,
  "TxRefAmp": 247.979,
  "WipMemBlock": "116e2da5-7e10-4c95-bc95-a1cdef5c5616||Sequence: R016 ve11c/master r/e634e98; Dec 19 2017 11:00:25 by eja",
  "dcmmeta_affine": [
    [-1.9954893589019775, -0.06654586642980576, 0.11659295856952667, 107.38465118408203],
    [-0.10909672826528549, 1.8160653114318848, -0.8306652903556824, -50.670005798339844],
    [0.07823153585195541, 0.8351518511772156, 1.8155994415283203, -67.1671142578125],
    [0.0, 0.0, 0.0, 1.0]
],
  "dcmmeta_reorient_transform": [
    [0.0, -1.0, 0.0, 103.0],
    [1.0, 0.0, 0.0, 0.0],
    [0.0, 0.0, 1.0, 0.0],
    [0.0, 0.0, 0.0, 1.0]
],
  "dcmmeta_shape": [104, 104, 60, 202],
  "dcmmeta_slice_dim": 2,
  "dcmmeta_version": 0.6,
  "global": {
    "const": {
      "AcquisitionMatrix": [104, 0, 0, 104],
      "AngioFlag": "N",
      "BitsAllocated": 16,
      "BitsStored": 16,
      "BodyPartExamined": "BRAIN",
      "Columns": 832,
      "EchoNumbers": 1,
      "EchoTime": 37.0,
      "EchoTrainLength": 104,
      "FlipAngle": 52.0,
      "HighBit": 15,
      "ImageOrientationPatient": [0.9977446730137, 0.05454836422208, 0.03911576962652, -0.0332729332081, 0.90803263714485, -0.4175759114167],
      "ImagePositionPatient": [-802.66585622661, -837.14368784553, 294.37250557199],
      "ImageType": [
        "ORIGINAL",
        "PRIMARY",
        "P",
        "MB",
        "ND",
        "MOSAIC"
],
      "ImagedNucleus": "1H",
      "ImagingFrequency": 123.258997,
      "InPlanePhaseEncodingDirection": "COL",
      "LargestImagePixelValue": 4095,
      "MRAcquisitionType": "2D",
      "MagneticFieldStrength": 3.0,
      "Manufacturer": "SIEMENS",
      "ManufacturerModelName": "Prisma_fit",
      "Modality": "MR",
      "NumberOfAverages": 1.0,
      "NumberOfPhaseEncodingSteps": 104,
      "PercentPhaseFieldOfView": 100.0,
      "PercentSampling": 100.0,
      "PerformedProcedureStepStartTime": "181359.395000",
      "PhotometricInterpretation": "MONOCHROME2",
      "PixelBandwidth": 2290.0,
      "PixelRepresentation": 0,
      "PixelSpacing": [2.0, 2.0],
      "ProtocolName": "func_task-rings",
      "RepetitionTime": 1490.0,
      "RescaleIntercept": -4096.0,
      "RescaleSlope": 2.0,
      "RescaleType": "US",
      "Rows": 832,
      "SAR": 0.03697586002928,
      "SamplesPerPixel": 1,
      "ScanOptions": "FS",
      "ScanningSequence": "EP",
      "SequenceName": "epfid2d1_104",
      "SequenceVariant": [
        "SK",
        "SS"
],
      "SeriesDescription": "func_task-rings",
      "SeriesNumber": 14,
      "SeriesTime": "182535.117000",
      "SliceLocation": -33.669233841068,
      "SliceThickness": 2.0,
      "SmallestImagePixelValue": 0,
      "SoftwareVersions": "syngo MR E11",
      "SpacingBetweenSlices": 2.0000000712536,
      "SpecificCharacterSet": "ISO_IR 100",
      "StudyID": "1",
      "StudyTime": "181359.289000",
      "TransmitCoilName": "Body",
      "VariableFlipAngleFlag": "N",
      "WindowCenterWidthExplanation": "Algo1",
      "dBdt": 0.0},
    "slices": {}
  },
  "time": {
    "samples": {
      "AcquisitionNumber": [1, 2, 3, 4, 5, 6, 7, 8, 9, 10, 11, 12, 13, 14, 15, 16, 17, 18, 19, 20, 21, 22, 23, 24, 25, 26, 27, 28, 29, 30, 31, 32, 33, 34, 35, 36, 37, 38, 39, 40, 41, 42, 43, 44, 45, 46, 47, 48, 49, 50, 51, 52, 53, 54, 55, 56, 57, 58, 59, 60, 61, 62, 63, 64, 65, 66, 67, 68, 69, 70, 71, 72, 73, 74, 75, 76, 77, 78, 79, 80, 81, 82, 83, 84, 85, 86, 87, 88, 89, 90, 91, 92, 93, 94, 95, 96, 97, 98, 99, 100, 101, 102, 103, 104, 105, 106, 107, 108, 109, 110, 111, 112, 113, 114, 115, 116, 117, 118, 119, 120, 121, 122, 123, 124, 125, 126, 127, 128, 129, 130, 131, 132, 133, 134, 135, 136, 137, 138, 139, 140, 141, 142, 143, 144, 145, 146, 147, 148, 149, 150, 151, 152, 153, 154, 155, 156, 157, 158, 159, 160, 161, 162, 163, 164, 165, 166, 167, 168, 169, 170, 171, 172, 173, 174, 175, 176, 177, 178, 179, 180, 181, 182, 183, 184, 185, 186, 187, 188, 189, 190, 191, 192, 193, 194, 195, 196, 197, 198, 199, 200, 201, 202],
      "AcquisitionTime": ["182410.542500", "182412.032500", "182413.522500", "182415.012500", "182416.502500", "182417.992500", "182419.482500", "182420.972500", "182422.462500", "182423.952500", "182425.442500", "182426.932500", "182428.422500", "182429.912500", "182431.402500", "182432.892500", "182434.382500", "182435.872500", "182437.362500", "182438.852500", "182440.342500", "182441.832500", "182443.322500", "182444.812500", "182446.302500", "182447.792500", "182449.282500", "182450.772500", "182452.262500", "182453.752500", "182455.242500", "182456.732500", "182458.222500", "182459.712500", "182501.202500", "182502.692500", "182504.182500", "182505.672500", "182507.162500", "182508.652500", "182510.142500", "182511.632500", "182513.122500", "182514.612500", "182516.102500", "182517.592500", "182519.082500", "182520.572500", "182522.062500", "182523.552500", "182525.042500", "182526.532500", "182528.022500", "182529.512500", "182531.002500", "182532.492500", "182533.982500", "182535.472500", "182536.962500", "182538.452500", "182539.942500", "182541.432500", "182542.922500", "182544.412500", "182545.902500", "182547.392500", "182548.882500", "182550.372500", "182551.862500", "182553.352500", "182554.842500", "182556.332500", "182557.822500", "182559.312500", "182600.802500", "182602.292500", "182603.782500", "182605.272500", "182606.762500", "182608.252500", "182609.742500", "182611.232500", "182612.722500", "182614.212500", "182615.702500", "182617.192500", "182618.682500", "182620.172500", "182621.662500", "182623.152500", "182624.642500", "182626.132500", "182627.622500", "182629.112500", "182630.602500", "182632.092500", "182633.582500", "182635.072500", "182636.562500", "182638.052500", "182639.542500", "182641.032500", "182642.522500", "182644.012500", "182645.502500", "182646.992500", "182648.482500", "182649.972500", "182651.462500", "182652.952500", "182654.442500", "182655.932500", "182657.422500", "182658.912500", "182700.402500", "182701.892500", "182703.382500", "182704.872500", "182706.362500", "182707.852500", "182709.342500", "182710.832500", "182712.322500", "182713.812500", "182715.302500", "182716.792500", "182718.282500", "182719.772500", "182721.262500", "182722.752500", "182724.242500", "182725.732500", "182727.222500", "182728.712500", "182730.202500", "182731.692500", "182733.182500", "182734.672500", "182736.162500", "182737.652500", "182739.142500", "182740.632500", "182742.122500", "182743.612500", "182745.102500", "182746.592500", "182748.082500", "182749.572500", "182751.062500", "182752.552500", "182754.042500", "182755.532500", "182757.022500", "182758.512500", "182800.002500", "182801.492500", "182802.982500", "182804.472500", "182805.962500", "182807.452500", "182808.942500", "182810.432500", "182811.922500", "182813.412500", "182814.902500", "182816.392500", "182817.882500", "182819.372500", "182820.862500", "182822.352500", "182823.842500", "182825.332500", "182826.822500", "182828.312500", "182829.802500", "182831.292500", "182832.782500", "182834.272500", "182835.762500", "182837.252500", "182838.742500", "182840.232500", "182841.722500", "182843.212500", "182844.702500", "182846.192500", "182847.682500", "182849.172500", "182850.662500", "182852.152500", "182853.642500", "182855.132500", "182856.622500", "182858.112500", "182859.602500", "182901.092500", "182902.582500", "182904.072500", "182905.562500", "182907.052500", "182908.542500", "182910.032500"],
      "ContentTime": ["182535.119000", "182535.122000", "182535.124000", "182535.127000", "182535.129000", "182535.132000", "182535.134000", "182535.137000", "182535.139000", "182535.142000", "182535.144000", "182535.147000", "182535.149000", "182535.152000", "182535.154000", "182535.157000", "182535.159000", "182535.162000", "182535.164000", "182535.167000", "182535.169000", "182535.172000", "182535.174000", "182535.177000", "182535.179000", "182535.182000", "182535.184000", "182535.187000", "182535.189000", "182535.192000", "182535.195000", "182555.018000", "182555.021000", "182555.024000", "182555.026000", "182555.029000", "182555.031000", "182555.034000", "182555.036000", "182555.039000", "182555.042000", "182555.044000", "182555.046000", "182555.049000", "182555.051000", "182555.054000", "182555.056000", "182555.059000", "182555.061000", "182555.064000", "182555.066000", "182615.029000", "182615.032000", "182615.034000", "182615.037000", "182615.039000", "182615.042000", "182615.044000", "182615.047000", "182615.049000", "182615.052000", "182615.054000", "182615.057000", "182615.059000", "182615.062000", "182615.064000", "182615.067000", "182615.070000", "182615.072000", "182615.075000", "182615.077000", "182635.092000", "182635.104000", "182635.107000", "182635.109000", "182635.112000", "182635.114000", "182635.117000", "182635.119000", "182635.122000", "182635.124000", "182635.127000", "182635.129000", "182635.132000", "182635.134000", "182635.137000", "182635.139000", "182635.142000", "182635.144000", "182635.147000", "182635.149000", "182635.152000", "182715.077000", "182715.080000", "182715.082000", "182715.085000", "182715.087000", "182715.090000", "182715.092000", "182715.101000", "182715.103000", "182715.106000", "182715.109000", "182715.111000", "182715.114000", "182715.116000", "182715.119000", "182715.122000", "182715.124000", "182715.127000", "182715.129000", "182715.132000", "182715.135000", "182715.137000", "182715.140000", "182715.142000", "182715.145000", "182715.147000", "182715.150000", "182715.152000", "182715.155000", "182715.158000", "182715.160000", "182755.056000", "182755.059000", "182755.061000", "182755.064000", "182755.066000", "182755.069000", "182755.071000", "182755.074000", "182755.076000", "182755.079000", "182755.081000", "182755.084000", "182755.086000", "182755.089000", "182755.091000", "182755.094000", "182755.096000", "182755.099000", "182755.101000", "182755.104000", "182755.106000", "182755.109000", "182755.111000", "182755.114000", "182755.117000", "182755.119000", "182835.057000", "182835.060000", "182835.063000", "182835.065000", "182835.068000", "182835.070000", "182835.073000", "182835.075000", "182835.078000", "182835.080000", "182835.083000", "182835.085000", "182835.088000", "182835.090000", "182835.093000", "182835.095000", "182835.098000", "182835.100000", "182835.103000", "182835.107000", "182835.110000", "182835.113000", "182835.115000", "182835.118000", "182835.120000", "182835.123000", "182835.126000", "182912.597000", "182912.600000", "182912.602000", "182912.605000", "182912.608000", "182912.610000", "182912.613000", "182912.615000", "182912.618000", "182912.621000", "182912.623000", "182912.626000", "182912.628000", "182912.631000", "182912.634000", "182912.636000", "182912.639000", "182912.641000", "182912.644000", "182912.647000", "182912.649000", "182912.652000", "182912.654000", "182912.657000", "182912.660000", "182912.662000"],
      "InstanceCreationTime": ["182535.119000", "182535.122000", "182535.124000", "182535.127000", "182535.129000", "182535.132000", "182535.134000", "182535.137000", "182535.139000", "182535.142000", "182535.144000", "182535.147000", "182535.149000", "182535.152000", "182535.154000", "182535.157000", "182535.159000", "182535.162000", "182535.164000", "182535.167000", "182535.169000", "182535.172000", "182535.174000", "182535.177000", "182535.179000", "182535.182000", "182535.184000", "182535.187000", "182535.189000", "182535.192000", "182535.195000", "182555.018000", "182555.021000", "182555.024000", "182555.026000", "182555.029000", "182555.031000", "182555.034000", "182555.036000", "182555.039000", "182555.042000", "182555.044000", "182555.046000", "182555.049000", "182555.051000", "182555.054000", "182555.056000", "182555.059000", "182555.061000", "182555.064000", "182555.066000", "182615.029000", "182615.032000", "182615.034000", "182615.037000", "182615.039000", "182615.042000", "182615.044000", "182615.047000", "182615.049000", "182615.052000", "182615.054000", "182615.057000", "182615.059000", "182615.062000", "182615.064000", "182615.067000", "182615.070000", "182615.072000", "182615.075000", "182615.077000", "182635.092000", "182635.104000", "182635.107000", "182635.109000", "182635.112000", "182635.114000", "182635.117000", "182635.119000", "182635.122000", "182635.124000", "182635.127000", "182635.129000", "182635.132000", "182635.134000", "182635.137000", "182635.139000", "182635.142000", "182635.144000", "182635.147000", "182635.149000", "182635.152000", "182715.077000", "182715.080000", "182715.082000", "182715.085000", "182715.087000", "182715.090000", "182715.092000", "182715.101000", "182715.103000", "182715.106000", "182715.109000", "182715.111000", "182715.114000", "182715.116000", "182715.119000", "182715.122000", "182715.124000", "182715.127000", "182715.129000", "182715.132000", "182715.135000", "182715.137000", "182715.140000", "182715.142000", "182715.145000", "182715.147000", "182715.150000", "182715.152000", "182715.155000", "182715.158000", "182715.160000", "182755.056000", "182755.059000", "182755.061000", "182755.064000", "182755.066000", "182755.069000", "182755.071000", "182755.074000", "182755.076000", "182755.079000", "182755.081000", "182755.084000", "182755.086000", "182755.089000", "182755.091000", "182755.094000", "182755.096000", "182755.099000", "182755.101000", "182755.104000", "182755.106000", "182755.109000", "182755.111000", "182755.114000", "182755.117000", "182755.119000", "182835.057000", "182835.060000", "182835.063000", "182835.065000", "182835.068000", "182835.070000", "182835.073000", "182835.075000", "182835.078000", "182835.080000", "182835.083000", "182835.085000", "182835.088000", "182835.090000", "182835.093000", "182835.095000", "182835.098000", "182835.100000", "182835.103000", "182835.107000", "182835.110000", "182835.113000", "182835.115000", "182835.118000", "182835.120000", "182835.123000", "182835.126000", "182912.597000", "182912.600000", "182912.602000", "182912.605000", "182912.608000", "182912.610000", "182912.613000", "182912.615000", "182912.618000", "182912.621000", "182912.623000", "182912.626000", "182912.628000", "182912.631000", "182912.634000", "182912.636000", "182912.639000", "182912.641000", "182912.644000", "182912.647000", "182912.649000", "182912.652000", "182912.654000", "182912.657000", "182912.660000", "182912.662000"],
      "InstanceNumber": [1, 2, 3, 4, 5, 6, 7, 8, 9, 10, 11, 12, 13, 14, 15, 16, 17, 18, 19, 20, 21, 22, 23, 24, 25, 26, 27, 28, 29, 30, 31, 32, 33, 34, 35, 36, 37, 38, 39, 40, 41, 42, 43, 44, 45, 46, 47, 48, 49, 50, 51, 52, 53, 54, 55, 56, 57, 58, 59, 60, 61, 62, 63, 64, 65, 66, 67, 68, 69, 70, 71, 72, 73, 74, 75, 76, 77, 78, 79, 80, 81, 82, 83, 84, 85, 86, 87, 88, 89, 90, 91, 92, 93, 94, 95, 96, 97, 98, 99, 100, 101, 102, 103, 104, 105, 106, 107, 108, 109, 110, 111, 112, 113, 114, 115, 116, 117, 118, 119, 120, 121, 122, 123, 124, 125, 126, 127, 128, 129, 130, 131, 132, 133, 134, 135, 136, 137, 138, 139, 140, 141, 142, 143, 144, 145, 146, 147, 148, 149, 150, 151, 152, 153, 154, 155, 156, 157, 158, 159, 160, 161, 162, 163, 164, 165, 166, 167, 168, 169, 170, 171, 172, 173, 174, 175, 176, 177, 178, 179, 180, 181, 182, 183, 184, 185, 186, 187, 188, 189, 190, 191, 192, 193, 194, 195, 196, 197, 198, 199, 200, 201, 202],
      "WindowCenter": [4810.0, 4808.0, 4810.0, 4812.0, 4810.0, 4814.0, 4812.0, 4810.0, 4812.0, 4812.0, 4810.0, 4810.0, 4836.0, 4810.0, 4810.0, 4812.0, 4810.0, 4812.0, 4808.0, 4808.0, 4812.0, 4810.0, 4808.0, 4810.0, 4812.0, 4812.0, 4812.0, 4810.0, 4810.0, 4808.0, 4814.0, 4812.0, 4810.0, 4808.0, 4816.0, 4810.0, 4810.0, 4812.0, 4810.0, 4810.0, 4812.0, 4812.0, 4814.0, 4812.0, 4810.0, 4812.0, 4810.0, 4836.0, 4842.0, 4838.0, 4812.0, 4812.0, 4808.0, 4814.0, 4838.0, 4848.0, 4844.0, 4814.0, 4808.0, 4814.0, 4810.0, 4812.0, 4810.0, 4812.0, 4812.0, 4812.0, 4864.0, 4874.0, 4856.0, 4854.0, 4874.0, 4840.0, 4814.0, 4812.0, 4838.0, 4812.0, 4812.0, 4836.0, 4842.0, 4838.0, 4838.0, 4814.0, 4812.0, 4812.0, 4816.0, 4810.0, 4810.0, 4814.0, 4814.0, 4812.0, 4812.0, 4838.0, 4836.0, 4834.0, 4810.0, 4816.0, 4812.0, 4838.0, 4814.0, 4834.0, 4812.0, 4814.0, 4814.0, 4814.0, 4836.0, 4814.0, 4812.0, 4812.0, 4814.0, 4836.0, 4816.0, 4836.0, 4808.0, 4814.0, 4814.0, 4838.0, 4814.0, 4838.0, 4840.0, 4836.0, 4810.0, 4814.0, 4810.0, 4814.0, 4812.0, 4810.0, 4812.0, 4810.0, 4816.0, 4812.0, 4814.0, 4838.0, 4812.0, 4810.0, 4816.0, 4812.0, 4812.0, 4814.0, 4812.0, 4812.0, 4812.0, 4812.0, 4812.0, 4810.0, 4814.0, 4812.0, 4812.0, 4814.0, 4814.0, 4836.0, 4842.0, 4838.0, 4814.0, 4812.0, 4812.0, 4814.0, 4814.0, 4838.0, 4838.0, 4846.0, 4850.0, 4840.0, 4814.0, 4812.0, 4814.0, 4814.0, 4812.0, 4812.0, 4838.0, 4840.0, 4842.0, 4838.0, 4816.0, 4814.0, 4810.0, 4814.0, 4812.0, 4812.0, 4838.0, 4814.0, 4816.0, 4840.0, 4836.0, 4814.0, 4838.0, 4816.0, 4816.0, 4814.0, 4816.0, 4812.0, 4838.0, 4836.0, 4814.0, 4812.0, 4808.0, 4810.0, 4814.0, 4810.0, 4812.0, 4814.0, 4816.0, 4812.0],
      "WindowWidth": [18596.0, 18598.0, 18600.0, 18596.0, 18596.0, 18602.0, 18600.0, 18594.0, 18600.0, 18604.0, 18596.0, 18600.0, 18628.0, 18594.0, 18598.0, 18596.0, 18596.0, 18604.0, 18602.0, 18594.0, 18596.0, 18596.0, 18594.0, 18596.0, 18600.0, 18598.0, 18602.0, 18602.0, 18598.0, 18596.0, 18606.0, 18598.0, 18596.0, 18596.0, 18600.0, 18602.0, 18600.0, 18598.0, 18596.0, 18598.0, 18596.0, 18596.0, 18604.0, 18596.0, 18602.0, 18602.0, 18596.0, 18630.0, 18638.0, 18632.0, 18598.0, 18610.0, 18606.0, 18600.0, 18630.0, 18642.0, 18648.0, 18600.0, 18596.0, 18606.0, 18594.0, 18600.0, 18598.0, 18600.0, 18612.0, 18606.0, 18670.0, 18674.0, 18634.0, 18636.0, 18668.0, 18630.0, 18600.0, 18610.0, 18640.0, 18604.0, 18596.0, 18626.0, 18628.0, 18628.0, 18630.0, 18594.0, 18598.0, 18600.0, 18600.0, 18596.0, 18594.0, 18602.0, 18598.0, 18604.0, 18600.0, 18626.0, 18628.0, 18628.0, 18598.0, 18604.0, 18600.0, 18628.0, 18598.0, 18628.0, 18596.0, 18594.0, 18600.0, 18598.0, 18628.0, 18600.0, 18596.0, 18596.0, 18604.0, 18632.0, 18600.0, 18630.0, 18592.0, 18598.0, 18596.0, 18636.0, 18594.0, 18626.0, 18634.0, 18630.0, 18600.0, 18600.0, 18596.0, 18600.0, 18596.0, 18594.0, 18596.0, 18596.0, 18602.0, 18592.0, 18596.0, 18630.0, 18600.0, 18600.0, 18602.0, 18600.0, 18596.0, 18602.0, 18596.0, 18596.0, 18600.0, 18608.0, 18598.0, 18594.0, 18594.0, 18602.0, 18602.0, 18604.0, 18598.0, 18624.0, 18632.0, 18632.0, 18598.0, 18598.0, 18604.0, 18608.0, 18604.0, 18630.0, 18628.0, 18634.0, 18636.0, 18632.0, 18596.0, 18596.0, 18606.0, 18608.0, 18604.0, 18596.0, 18630.0, 18630.0, 18632.0, 18628.0, 18598.0, 18600.0, 18604.0, 18606.0, 18598.0, 18594.0, 18626.0, 18598.0, 18600.0, 18636.0, 18628.0, 18590.0, 18626.0, 18602.0, 18596.0, 18604.0, 18606.0, 18604.0, 18628.0, 18632.0, 18602.0, 18596.0, 18592.0, 18596.0, 18602.0, 18594.0, 18598.0, 18596.0, 18596.0, 18600.0]
    },
    "slices": {}
  }
}