{
  "AcquisitionMatrixPE": 104,
  "AcquisitionNumber": 1,
  "AcquisitionTime": "18:30:54.945000",
  "BandwidthPerPixelPhaseEncode": 17.17,
  "BaseResolution": 104,
  "BodyPartExamined": "BRAIN",
  "CoilString": "HC1-7;NC1_2",
  "ConsistencyInfo": "N4_VE11C_LATEST_20160120",
  "ConversionSoftware": "dcm2niix",
  "ConversionSoftwareVersion": "v1.0.20190902",
  "DerivedVendorReportedEchoSpacing": 0.000560011,
  "DeviceSerialNumber": "167006",
  "DwellTime": 2.1e-06,
  "EchoTime": 0.037,
  "EchoTrainLength": 104,
  "EffectiveEchoSpacing": 0.000560011,
  "FlipAngle": 52,
  "ImageComments": "Unaliased_MB4_PE3_LB",
  "ImageOrientationPatientDICOM": [0.997745, 0.0545484, 0.0391158, -0.0332729, 0.908033, -0.417576],
  "ImageType": [
    "ORIGINAL",
    "PRIMARY",
    "M",
    "MB",
    "ND",
    "MOSAIC"
],
  "ImagingFrequency": 123.259,
  "InPlanePhaseEncodingDirectionDICOM": "COL",
  "InstitutionAddress": "Chemin_Queen-Mary_4565_Montreal_District_CA_H3W_1W5",
  "InstitutionName": "IUGM",
  "InstitutionalDepartmentName": "Department",
  "MRAcquisitionType": "2D",
  "MagneticFieldStrength": 3,
  "Manufacturer": "Siemens",
  "ManufacturersModelName": "Prisma_fit",
  "Modality": "MR",
  "MultibandAccelerationFactor": 4,
  "PartialFourier": 1,
  "PatientPosition": "HFS",
  "PercentPhaseFOV": 100,
  "PhaseEncodingDirection": "j",
  "PhaseEncodingSteps": 104,
  "PhaseResolution": 1,
  "PixelBandwidth": 2290,
  "ProcedureStepDescription": "localizers_retinotopy",
  "ProtocolName": "func_task-bars",
  "PulseSequenceDetails": "%CustomerSeq%_cmrr_mbep2d_bold",
  "ReceiveCoilActiveElements": "HC1-7;NC1,2",
  "ReceiveCoilName": "HeadNeck_64",
  "ReconMatrixPE": 104,
  "RepetitionTime": 1.49,
  "SAR": 0.0369759,
  "ScanOptions": "FS",
  "ScanningSequence": "EP",
  "SequenceName": "epfid2d1_104",
  "SequenceVariant": "SK_SS",
  "SeriesDescription": "func_task-bars",
  "SeriesNumber": 16,
  "ShimSetting": [628, -7208, -8844, 544, 79, 28, -74, 1],
  "SliceThickness": 2,
  "SliceTiming": [0, 0.7825, 0.0975, 0.88, 0.195, 0.98, 0.2925, 1.0775, 0.39, 1.175, 0.49, 1.2725, 0.5875, 1.37, 0.685, 0, 0.7825, 0.0975, 0.88, 0.195, 0.98, 0.2925, 1.0775, 0.39, 1.175, 0.49, 1.2725, 0.5875, 1.37, 0.685, 0, 0.7825, 0.0975, 0.88, 0.195, 0.98, 0.2925, 1.0775, 0.39, 1.175, 0.49, 1.2725, 0.5875, 1.37, 0.685, 0, 0.7825, 0.0975, 0.88, 0.195, 0.98, 0.2925, 1.0775, 0.39, 1.175, 0.49, 1.2725, 0.5875, 1.37, 0.685],
  "SoftwareVersions": "syngo_MR_E11",
  "SpacingBetweenSlices": 2,
  "StationName": "MRC35049",
  "TaskName": "bars",
  "TotalReadoutTime": 0.0576811,
  "TxRefAmp": 247.979,
  "WipMemBlock": "3bfe4b49-31dd-489a-a904-50b98f49efc7||Sequence: R016 ve11c/master r/e634e98; Dec 19 2017 11:00:25 by eja",
  "dcmmeta_affine": [
    [-1.9954893589019775, -0.06654586642980576, 0.11659295856952667, 107.38465118408203],
    [-0.10909672826528549, 1.8160653114318848, -0.8306652903556824, -50.670005798339844],
    [0.07823153585195541, 0.8351518511772156, 1.8155994415283203, -67.1671142578125],
    [0.0, 0.0, 0.0, 1.0]
],
  "dcmmeta_reorient_transform": [
    [0.0, -1.0, 0.0, 103.0],
    [1.0, 0.0, 0.0, 0.0],
    [0.0, 0.0, 1.0, 0.0],
    [0.0, 0.0, 0.0, 1.0]
],
  "dcmmeta_shape": [104, 104, 60, 202],
  "dcmmeta_slice_dim": 2,
  "dcmmeta_version": 0.6,
  "global": {
    "const": {
      "AcquisitionMatrix": [104, 0, 0, 104],
      "AngioFlag": "N",
      "BitsAllocated": 16,
      "BitsStored": 16,
      "BodyPartExamined": "BRAIN",
      "Columns": 832,
      "EchoNumbers": 1,
      "EchoTime": 37.0,
      "EchoTrainLength": 104,
      "FlipAngle": 52.0,
      "HighBit": 15,
      "ImageOrientationPatient": [0.9977446730137, 0.05454836422208, 0.03911576962652, -0.0332729332081, 0.90803263714485, -0.4175759114167],
      "ImagePositionPatient": [-802.66585622661, -837.14368784553, 294.37250557199],
      "ImageType": [
        "ORIGINAL",
        "PRIMARY",
        "M",
        "MB",
        "ND",
        "MOSAIC"
],
      "ImagedNucleus": "1H",
      "ImagingFrequency": 123.258999,
      "InPlanePhaseEncodingDirection": "COL",
      "MRAcquisitionType": "2D",
      "MagneticFieldStrength": 3.0,
      "Manufacturer": "SIEMENS",
      "ManufacturerModelName": "Prisma_fit",
      "Modality": "MR",
      "NumberOfAverages": 1.0,
      "NumberOfPhaseEncodingSteps": 104,
      "PercentPhaseFieldOfView": 100.0,
      "PercentSampling": 100.0,
      "PerformedProcedureStepStartTime": "181359.395000",
      "PhotometricInterpretation": "MONOCHROME2",
      "PixelBandwidth": 2290.0,
      "PixelRepresentation": 0,
      "PixelSpacing": [2.0, 2.0],
      "ProtocolName": "func_task-bars",
      "RepetitionTime": 1490.0,
      "Rows": 832,
      "SAR": 0.03697586002928,
      "SamplesPerPixel": 1,
      "ScanOptions": "FS",
      "ScanningSequence": "EP",
      "SequenceName": "epfid2d1_104",
      "SequenceVariant": [
        "SK",
        "SS"
],
      "SeriesDescription": "func_task-bars",
      "SeriesNumber": 16,
      "SeriesTime": "183224.133000",
      "SliceLocation": -33.669233841068,
      "SliceThickness": 2.0,
      "SmallestImagePixelValue": 0,
      "SoftwareVersions": "syngo MR E11",
      "SpacingBetweenSlices": 2.0000000712536,
      "SpecificCharacterSet": "ISO_IR 100",
      "StudyID": "1",
      "StudyTime": "181359.289000",
      "TransmitCoilName": "Body",
      "VariableFlipAngleFlag": "N",
      "WindowCenterWidthExplanation": "Algo1",
      "dBdt": 0.0},
    "slices": {}
  },
  "time": {
    "samples": {
      "AcquisitionNumber": [1, 2, 3, 4, 5, 6, 7, 8, 9, 10, 11, 12, 13, 14, 15, 16, 17, 18, 19, 20, 21, 22, 23, 24, 25, 26, 27, 28, 29, 30, 31, 32, 33, 34, 35, 36, 37, 38, 39, 40, 41, 42, 43, 44, 45, 46, 47, 48, 49, 50, 51, 52, 53, 54, 55, 56, 57, 58, 59, 60, 61, 62, 63, 64, 65, 66, 67, 68, 69, 70, 71, 72, 73, 74, 75, 76, 77, 78, 79, 80, 81, 82, 83, 84, 85, 86, 87, 88, 89, 90, 91, 92, 93, 94, 95, 96, 97, 98, 99, 100, 101, 102, 103, 104, 105, 106, 107, 108, 109, 110, 111, 112, 113, 114, 115, 116, 117, 118, 119, 120, 121, 122, 123, 124, 125, 126, 127, 128, 129, 130, 131, 132, 133, 134, 135, 136, 137, 138, 139, 140, 141, 142, 143, 144, 145, 146, 147, 148, 149, 150, 151, 152, 153, 154, 155, 156, 157, 158, 159, 160, 161, 162, 163, 164, 165, 166, 167, 168, 169, 170, 171, 172, 173, 174, 175, 176, 177, 178, 179, 180, 181, 182, 183, 184, 185, 186, 187, 188, 189, 190, 191, 192, 193, 194, 195, 196, 197, 198, 199, 200, 201, 202],
      "AcquisitionTime": ["183054.945000", "183056.435000", "183057.925000", "183059.415000", "183100.905000", "183102.395000", "183103.885000", "183105.375000", "183106.865000", "183108.355000", "183109.845000", "183111.335000", "183112.825000", "183114.315000", "183115.805000", "183117.295000", "183118.785000", "183120.275000", "183121.765000", "183123.255000", "183124.745000", "183126.235000", "183127.725000", "183129.215000", "183130.705000", "183132.195000", "183133.685000", "183135.175000", "183136.665000", "183138.155000", "183139.645000", "183141.135000", "183142.625000", "183144.115000", "183145.605000", "183147.095000", "183148.585000", "183150.075000", "183151.565000", "183153.055000", "183154.545000", "183156.035000", "183157.525000", "183159.015000", "183200.505000", "183201.995000", "183203.485000", "183204.975000", "183206.465000", "183207.955000", "183209.445000", "183210.935000", "183212.425000", "183213.915000", "183215.405000", "183216.895000", "183218.385000", "183219.875000", "183221.365000", "183222.855000", "183224.345000", "183225.835000", "183227.325000", "183228.815000", "183230.305000", "183231.795000", "183233.285000", "183234.775000", "183236.265000", "183237.755000", "183239.245000", "183240.735000", "183242.225000", "183243.715000", "183245.205000", "183246.695000", "183248.185000", "183249.675000", "183251.165000", "183252.655000", "183254.145000", "183255.635000", "183257.125000", "183258.615000", "183300.105000", "183301.595000", "183303.085000", "183304.575000", "183306.065000", "183307.555000", "183309.045000", "183310.535000", "183312.025000", "183313.515000", "183315.005000", "183316.495000", "183317.985000", "183319.475000", "183320.965000", "183322.455000", "183323.945000", "183325.435000", "183326.925000", "183328.415000", "183329.905000", "183331.395000", "183332.885000", "183334.375000", "183335.865000", "183337.355000", "183338.845000", "183340.335000", "183341.825000", "183343.315000", "183344.805000", "183346.295000", "183347.785000", "183349.275000", "183350.765000", "183352.255000", "183353.745000", "183355.235000", "183356.725000", "183358.215000", "183359.705000", "183401.195000", "183402.685000", "183404.175000", "183405.665000", "183407.155000", "183408.645000", "183410.135000", "183411.625000", "183413.115000", "183414.605000", "183416.095000", "183417.585000", "183419.075000", "183420.565000", "183422.055000", "183423.545000", "183425.035000", "183426.525000", "183428.015000", "183429.505000", "183430.995000", "183432.485000", "183433.975000", "183435.465000", "183436.955000", "183438.445000", "183439.935000", "183441.425000", "183442.915000", "183444.405000", "183445.895000", "183447.385000", "183448.875000", "183450.365000", "183451.855000", "183453.345000", "183454.835000", "183456.325000", "183457.815000", "183459.305000", "183500.795000", "183502.285000", "183503.775000", "183505.265000", "183506.755000", "183508.245000", "183509.735000", "183511.225000", "183512.715000", "183514.205000", "183515.695000", "183517.185000", "183518.675000", "183520.165000", "183521.655000", "183523.145000", "183524.635000", "183526.125000", "183527.615000", "183529.105000", "183530.595000", "183532.085000", "183533.575000", "183535.065000", "183536.555000", "183538.045000", "183539.535000", "183541.025000", "183542.515000", "183544.005000", "183545.495000", "183546.985000", "183548.475000", "183549.965000", "183551.455000", "183552.945000", "183554.435000"],
      "ContentTime": ["183224.136000", "183224.141000", "183224.150000", "183224.154000", "183224.157000", "183224.161000", "183224.164000", "183224.168000", "183224.171000", "183224.174000", "183224.178000", "183224.181000", "183224.185000", "183224.188000", "183224.220000", "183224.224000", "183224.227000", "183224.230000", "183224.234000", "183224.237000", "183224.240000", "183224.244000", "183224.247000", "183224.250000", "183224.254000", "183224.257000", "183224.260000", "183224.264000", "183224.267000", "183224.270000", "183224.274000", "183224.277000", "183224.280000", "183224.284000", "183224.287000", "183244.090000", "183244.094000", "183244.097000", "183244.100000", "183244.104000", "183244.107000", "183244.111000", "183244.114000", "183244.117000", "183244.120000", "183244.124000", "183244.127000", "183244.131000", "183244.134000", "183244.137000", "183244.141000", "183244.144000", "183244.147000", "183244.151000", "183244.154000", "183244.157000", "183304.090000", "183304.094000", "183304.097000", "183304.100000", "183304.104000", "183304.107000", "183304.110000", "183304.114000", "183304.117000", "183304.121000", "183304.124000", "183304.127000", "183304.131000", "183304.134000", "183304.137000", "183304.141000", "183304.144000", "183304.147000", "183304.151000", "183304.154000", "183324.090000", "183324.094000", "183324.097000", "183324.101000", "183324.104000", "183324.107000", "183324.111000", "183324.114000", "183324.117000", "183324.121000", "183324.128000", "183324.132000", "183324.135000", "183324.138000", "183324.142000", "183324.145000", "183324.148000", "183324.152000", "183324.155000", "183324.159000", "183404.090000", "183404.094000", "183404.097000", "183404.101000", "183404.104000", "183404.107000", "183404.111000", "183404.114000", "183404.117000", "183404.121000", "183404.124000", "183404.128000", "183404.131000", "183404.134000", "183404.144000", "183404.147000", "183404.151000", "183404.154000", "183404.157000", "183404.161000", "183404.164000", "183404.168000", "183404.171000", "183404.174000", "183404.178000", "183404.181000", "183404.184000", "183404.188000", "183404.191000", "183404.195000", "183444.090000", "183444.094000", "183444.097000", "183444.101000", "183444.104000", "183444.107000", "183444.111000", "183444.114000", "183444.117000", "183444.121000", "183444.124000", "183444.128000", "183444.131000", "183444.134000", "183444.138000", "183444.141000", "183444.145000", "183444.148000", "183444.151000", "183444.155000", "183444.158000", "183444.162000", "183444.165000", "183444.169000", "183444.172000", "183444.175000", "183444.179000", "183524.090000", "183524.094000", "183524.097000", "183524.101000", "183524.104000", "183524.107000", "183524.111000", "183524.114000", "183524.117000", "183524.121000", "183524.124000", "183524.128000", "183524.131000", "183524.134000", "183524.138000", "183524.141000", "183524.145000", "183524.148000", "183524.151000", "183524.155000", "183524.158000", "183524.162000", "183524.165000", "183524.168000", "183524.172000", "183524.175000", "183524.178000", "183556.668000", "183556.672000", "183556.675000", "183556.678000", "183556.682000", "183556.685000", "183556.699000", "183556.703000", "183556.706000", "183556.709000", "183556.713000", "183556.716000", "183556.719000", "183556.723000", "183556.726000", "183556.730000", "183556.733000", "183556.736000", "183556.740000", "183556.743000", "183556.746000", "183556.750000"],
      "InstanceCreationTime": ["183224.136000", "183224.141000", "183224.150000", "183224.154000", "183224.157000", "183224.161000", "183224.164000", "183224.168000", "183224.171000", "183224.174000", "183224.178000", "183224.181000", "183224.185000", "183224.188000", "183224.220000", "183224.224000", "183224.227000", "183224.230000", "183224.234000", "183224.237000", "183224.240000", "183224.244000", "183224.247000", "183224.250000", "183224.254000", "183224.257000", "183224.260000", "183224.264000", "183224.267000", "183224.270000", "183224.274000", "183224.277000", "183224.280000", "183224.284000", "183224.287000", "183244.090000", "183244.094000", "183244.097000", "183244.100000", "183244.104000", "183244.107000", "183244.111000", "183244.114000", "183244.117000", "183244.120000", "183244.124000", "183244.127000", "183244.131000", "183244.134000", "183244.137000", "183244.141000", "183244.144000", "183244.147000", "183244.151000", "183244.154000", "183244.157000", "183304.090000", "183304.094000", "183304.097000", "183304.100000", "183304.104000", "183304.107000", "183304.110000", "183304.114000", "183304.117000", "183304.121000", "183304.124000", "183304.127000", "183304.131000", "183304.134000", "183304.137000", "183304.141000", "183304.144000", "183304.147000", "183304.151000", "183304.154000", "183324.090000", "183324.094000", "183324.097000", "183324.101000", "183324.104000", "183324.107000", "183324.111000", "183324.114000", "183324.117000", "183324.121000", "183324.128000", "183324.132000", "183324.135000", "183324.138000", "183324.142000", "183324.145000", "183324.148000", "183324.152000", "183324.155000", "183324.159000", "183404.090000", "183404.094000", "183404.097000", "183404.101000", "183404.104000", "183404.107000", "183404.111000", "183404.114000", "183404.117000", "183404.121000", "183404.124000", "183404.128000", "183404.131000", "183404.134000", "183404.144000", "183404.147000", "183404.151000", "183404.154000", "183404.157000", "183404.161000", "183404.164000", "183404.168000", "183404.171000", "183404.174000", "183404.178000", "183404.181000", "183404.184000", "183404.188000", "183404.191000", "183404.195000", "183444.090000", "183444.094000", "183444.097000", "183444.101000", "183444.104000", "183444.107000", "183444.111000", "183444.114000", "183444.117000", "183444.121000", "183444.124000", "183444.128000", "183444.131000", "183444.134000", "183444.138000", "183444.141000", "183444.145000", "183444.148000", "183444.151000", "183444.155000", "183444.158000", "183444.162000", "183444.165000", "183444.169000", "183444.172000", "183444.175000", "183444.179000", "183524.090000", "183524.094000", "183524.097000", "183524.101000", "183524.104000", "183524.107000", "183524.111000", "183524.114000", "183524.117000", "183524.121000", "183524.124000", "183524.128000", "183524.131000", "183524.134000", "183524.138000", "183524.141000", "183524.145000", "183524.148000", "183524.151000", "183524.155000", "183524.158000", "183524.162000", "183524.165000", "183524.168000", "183524.172000", "183524.175000", "183524.178000", "183556.668000", "183556.672000", "183556.675000", "183556.678000", "183556.682000", "183556.685000", "183556.699000", "183556.703000", "183556.706000", "183556.709000", "183556.713000", "183556.716000", "183556.719000", "183556.723000", "183556.726000", "183556.730000", "183556.733000", "183556.736000", "183556.740000", "183556.743000", "183556.746000", "183556.750000"],
      "InstanceNumber": [1, 2, 3, 4, 5, 6, 7, 8, 9, 10, 11, 12, 13, 14, 15, 16, 17, 18, 19, 20, 21, 22, 23, 24, 25, 26, 27, 28, 29, 30, 31, 32, 33, 34, 35, 36, 37, 38, 39, 40, 41, 42, 43, 44, 45, 46, 47, 48, 49, 50, 51, 52, 53, 54, 55, 56, 57, 58, 59, 60, 61, 62, 63, 64, 65, 66, 67, 68, 69, 70, 71, 72, 73, 74, 75, 76, 77, 78, 79, 80, 81, 82, 83, 84, 85, 86, 87, 88, 89, 90, 91, 92, 93, 94, 95, 96, 97, 98, 99, 100, 101, 102, 103, 104, 105, 106, 107, 108, 109, 110, 111, 112, 113, 114, 115, 116, 117, 118, 119, 120, 121, 122, 123, 124, 125, 126, 127, 128, 129, 130, 131, 132, 133, 134, 135, 136, 137, 138, 139, 140, 141, 142, 143, 144, 145, 146, 147, 148, 149, 150, 151, 152, 153, 154, 155, 156, 157, 158, 159, 160, 161, 162, 163, 164, 165, 166, 167, 168, 169, 170, 171, 172, 173, 174, 175, 176, 177, 178, 179, 180, 181, 182, 183, 184, 185, 186, 187, 188, 189, 190, 191, 192, 193, 194, 195, 196, 197, 198, 199, 200, 201, 202],
      "LargestImagePixelValue": [43874, 43411, 41761, 40919, 40400, 41089, 40889, 40582, 40586, 40897, 40534, 40727, 41360, 40699, 41271, 41154, 40813, 40531, 40536, 40818, 40496, 40717, 41035, 41136, 40711, 40841, 40750, 41019, 41261, 40331, 40806, 41265, 41368, 40777, 41112, 41727, 41437, 41506, 41203, 41626, 41157, 41426, 41520, 41643, 41277, 41396, 41065, 41378, 41530, 41393, 41838, 42023, 41258, 41325, 41399, 41223, 41951, 41584, 41362, 41131, 41474, 41535, 41851, 41286, 41415, 41075, 40918, 41218, 41021, 41774, 41315, 41119, 41172, 40859, 41612, 41605, 41721, 41744, 41418, 40884, 41345, 41602, 41234, 40865, 41425, 40631, 40615, 41098, 41343, 39705, 40329, 40850, 41017, 41100, 40185, 39780, 40468, 40690, 41072, 41370, 40216, 40465, 39557, 39803, 40727, 40496, 39349, 39195, 39048, 39630, 40249, 40128, 39709, 39171, 38620, 38979, 39771, 40871, 38800, 38826, 38585, 38643, 39324, 39691, 39038, 38454, 38096, 38251, 38344, 38924, 38355, 39023, 37963, 38591, 39462, 39806, 38496, 38244, 38424, 38004, 38608, 38648, 38505, 38849, 38165, 37817, 39326, 38732, 38556, 38382, 37465, 37644, 38192, 38840, 38632, 38045, 37225, 37012, 37343, 36923, 37854, 37829, 37624, 38084, 38401, 38297, 38455, 38312, 38061, 38051, 38368, 37565, 38411, 38620, 38814, 37725, 37681, 37297, 38404, 38205, 38638, 37970, 37615, 38778, 38467, 37658, 38283, 38033, 38020, 38743, 40074, 39618, 39044, 39882, 39331, 39907, 38575, 40099, 40168, 40049, 39105, 38476],
      "WindowCenter": [10179.0, 10155.0, 10154.0, 10140.0, 10116.0, 10110.0, 10102.0, 10097.0, 10093.0, 10101.0, 10113.0, 10122.0, 10117.0, 10111.0, 10124.0, 10127.0, 10145.0, 10130.0, 10119.0, 10102.0, 10103.0, 10126.0, 10145.0, 10127.0, 10109.0, 10105.0, 10094.0, 10110.0, 10127.0, 10111.0, 10099.0, 10113.0, 10113.0, 10096.0, 10110.0, 10131.0, 10136.0, 10131.0, 10117.0, 10118.0, 10119.0, 10127.0, 10150.0, 10145.0, 10129.0, 10126.0, 10120.0, 10125.0, 10133.0, 10144.0, 10152.0, 10141.0, 10120.0, 10117.0, 10109.0, 10125.0, 10158.0, 10161.0, 10129.0, 10116.0, 10121.0, 10115.0, 10130.0, 10134.0, 10128.0, 10110.0, 10099.0, 10097.0, 10097.0, 10119.0, 10134.0, 10138.0, 10127.0, 10110.0, 10104.0, 10113.0, 10140.0, 10160.0, 10143.0, 10118.0, 10106.0, 10101.0, 10106.0, 10140.0, 10142.0, 10119.0, 10104.0, 10101.0, 10114.0, 10117.0, 10131.0, 10120.0, 10102.0, 10089.0, 10084.0, 10103.0, 10111.0, 10101.0, 10091.0, 10099.0, 10121.0, 10134.0, 10119.0, 10103.0, 10089.0, 10096.0, 10103.0, 10112.0, 10105.0, 10099.0, 10105.0, 10118.0, 10146.0, 10135.0, 10111.0, 10105.0, 10093.0, 10110.0, 10114.0, 10137.0, 10127.0, 10109.0, 10097.0, 10095.0, 10105.0, 10109.0, 10087.0, 10082.0, 10076.0, 10078.0, 10082.0, 10114.0, 10113.0, 10110.0, 10108.0, 10131.0, 10140.0, 10140.0, 10123.0, 10105.0, 10101.0, 10100.0, 10104.0, 10121.0, 10116.0, 10110.0, 10118.0, 10110.0, 10113.0, 10115.0, 10099.0, 10098.0, 10097.0, 10112.0, 10112.0, 10105.0, 10096.0, 10110.0, 10120.0, 10108.0, 10110.0, 10100.0, 10101.0, 10116.0, 10132.0, 10125.0, 10116.0, 10105.0, 10105.0, 10135.0, 10163.0, 10133.0, 10124.0, 10120.0, 10111.0, 10091.0, 10097.0, 10102.0, 10112.0, 10090.0, 10098.0, 10095.0, 10107.0, 10140.0, 10141.0, 10112.0, 10099.0, 10089.0, 10114.0, 10145.0, 10169.0, 10155.0, 10125.0, 10115.0, 10092.0, 10094.0, 10099.0, 10141.0, 10158.0, 10143.0, 10122.0, 10107.0],
      "WindowWidth": [21570.0, 21505.0, 21500.0, 21467.0, 21414.0, 21393.0, 21377.0, 21366.0, 21354.0, 21371.0, 21401.0, 21421.0, 21405.0, 21394.0, 21419.0, 21429.0, 21476.0, 21440.0, 21411.0, 21373.0, 21374.0, 21427.0, 21476.0, 21434.0, 21387.0, 21377.0, 21358.0, 21389.0, 21427.0, 21396.0, 21365.0, 21393.0, 21392.0, 21360.0, 21387.0, 21438.0, 21451.0, 21432.0, 21403.0, 21410.0, 21412.0, 21428.0, 21480.0, 21471.0, 21435.0, 21424.0, 21414.0, 21422.0, 21438.0, 21467.0, 21483.0, 21457.0, 21411.0, 21403.0, 21387.0, 21422.0, 21494.0, 21505.0, 21434.0, 21400.0, 21408.0, 21400.0, 21429.0, 21442.0, 21432.0, 21389.0, 21361.0, 21358.0, 21359.0, 21404.0, 21447.0, 21456.0, 21428.0, 21395.0, 21373.0, 21391.0, 21456.0, 21504.0, 21463.0, 21404.0, 21376.0, 21362.0, 21379.0, 21456.0, 21461.0, 21410.0, 21376.0, 21368.0, 21393.0, 21417.0, 21442.0, 21414.0, 21373.0, 21339.0, 21333.0, 21379.0, 21395.0, 21369.0, 21345.0, 21361.0, 21418.0, 21451.0, 21415.0, 21386.0, 21344.0, 21360.0, 21387.0, 21406.0, 21392.0, 21373.0, 21382.0, 21414.0, 21484.0, 21461.0, 21406.0, 21393.0, 21358.0, 21388.0, 21413.0, 21468.0, 21443.0, 21399.0, 21369.0, 21363.0, 21387.0, 21401.0, 21356.0, 21338.0, 21332.0, 21330.0, 21343.0, 21413.0, 21417.0, 21405.0, 21399.0, 21447.0, 21478.0, 21476.0, 21435.0, 21396.0, 21384.0, 21379.0, 21394.0, 21433.0, 21421.0, 21411.0, 21421.0, 21403.0, 21415.0, 21425.0, 21386.0, 21384.0, 21379.0, 21414.0, 21414.0, 21395.0, 21380.0, 21413.0, 21439.0, 21416.0, 21411.0, 21388.0, 21391.0, 21423.0, 21458.0, 21445.0, 21421.0, 21395.0, 21396.0, 21468.0, 21538.0, 21466.0, 21439.0, 21426.0, 21406.0, 21366.0, 21377.0, 21396.0, 21411.0, 21362.0, 21375.0, 21374.0, 21403.0, 21477.0, 21478.0, 21417.0, 21382.0, 21363.0, 21415.0, 21486.0, 21536.0, 21505.0, 21440.0, 21408.0, 21359.0, 21357.0, 21376.0, 21469.0, 21509.0, 21474.0, 21430.0, 21402.0]
    },
    "slices": {}
  }
}