{
  "AcquisitionMatrixPE": 104,
  "AcquisitionNumber": 1,
  "AcquisitionTime": "18:17:41.305000",
  "BandwidthPerPixelPhaseEncode": 17.17,
  "BaseResolution": 104,
  "BodyPartExamined": "BRAIN",
  "CoilString": "HC1-7;NC1_2",
  "ConsistencyInfo": "N4_VE11C_LATEST_20160120",
  "ConversionSoftware": "dcm2niix",
  "ConversionSoftwareVersion": "v1.0.20190902",
  "DerivedVendorReportedEchoSpacing": 0.000560011,
  "DeviceSerialNumber": "167006",
  "DwellTime": 2.1e-06,
  "EchoTime": 0.037,
  "EchoTrainLength": 104,
  "EffectiveEchoSpacing": 0.000560011,
  "FlipAngle": 52,
  "ImageComments": "Unaliased_MB4_PE3_LB",
  "ImageOrientationPatientDICOM": [0.997745, 0.0545484, 0.0391158, -0.0332729, 0.908033, -0.417576],
  "ImageType": [
    "ORIGINAL",
    "PRIMARY",
    "P",
    "MB",
    "ND",
    "MOSAIC"
],
  "ImagingFrequency": 123.259,
  "InPlanePhaseEncodingDirectionDICOM": "COL",
  "InstitutionAddress": "Chemin_Queen-Mary_4565_Montreal_District_CA_H3W_1W5",
  "InstitutionName": "IUGM",
  "InstitutionalDepartmentName": "Department",
  "MRAcquisitionType": "2D",
  "MagneticFieldStrength": 3,
  "Manufacturer": "Siemens",
  "ManufacturersModelName": "Prisma_fit",
  "Modality": "MR",
  "MultibandAccelerationFactor": 4,
  "PartialFourier": 1,
  "PatientPosition": "HFS",
  "PercentPhaseFOV": 100,
  "PhaseEncodingDirection": "j",
  "PhaseEncodingSteps": 104,
  "PhaseResolution": 1,
  "PixelBandwidth": 2290,
  "ProcedureStepDescription": "localizers_retinotopy",
  "ProtocolName": "func_task-wedges",
  "PulseSequenceDetails": "%CustomerSeq%_cmrr_mbep2d_bold",
  "ReceiveCoilActiveElements": "HC1-7;NC1,2",
  "ReceiveCoilName": "HeadNeck_64",
  "ReconMatrixPE": 104,
  "RepetitionTime": 1.49,
  "SAR": 0.0369759,
  "ScanOptions": "FS",
  "ScanningSequence": "EP",
  "SequenceName": "epfid2d1_104",
  "SequenceVariant": "SK_SS",
  "SeriesDescription": "func_task-wedges",
  "SeriesNumber": 11,
  "ShimSetting": [628, -7208, -8844, 544, 79, 28, -74, 1],
  "SliceThickness": 2,
  "SliceTiming": [0, 0.7825, 0.0975, 0.88, 0.195, 0.98, 0.2925, 1.0775, 0.3925, 1.175, 0.49, 1.2725, 0.5875, 1.37, 0.685, 0, 0.7825, 0.0975, 0.88, 0.195, 0.98, 0.2925, 1.0775, 0.3925, 1.175, 0.49, 1.2725, 0.5875, 1.37, 0.685, 0, 0.7825, 0.0975, 0.88, 0.195, 0.98, 0.2925, 1.0775, 0.3925, 1.175, 0.49, 1.2725, 0.5875, 1.37, 0.685, 0, 0.7825, 0.0975, 0.88, 0.195, 0.98, 0.2925, 1.0775, 0.3925, 1.175, 0.49, 1.2725, 0.5875, 1.37, 0.685],
  "SoftwareVersions": "syngo_MR_E11",
  "SpacingBetweenSlices": 2,
  "StationName": "MRC35049",
  "TaskName": "wedges",
  "TotalReadoutTime": 0.0576811,
  "TxRefAmp": 247.979,
  "WipMemBlock": "529e010b-38b5-44b6-9df4-e17de03f0d8e||Sequence: R016 ve11c/master r/e634e98; Dec 19 2017 11:00:25 by eja",
  "dcmmeta_affine": [
    [-1.9954893589019775, -0.06654586642980576, 0.11659295856952667, 107.38465118408203],
    [-0.10909672826528549, 1.8160653114318848, -0.8306652903556824, -50.670005798339844],
    [0.07823153585195541, 0.8351518511772156, 1.8155994415283203, -67.1671142578125],
    [0.0, 0.0, 0.0, 1.0]
],
  "dcmmeta_reorient_transform": [
    [0.0, -1.0, 0.0, 103.0],
    [1.0, 0.0, 0.0, 0.0],
    [0.0, 0.0, 1.0, 0.0],
    [0.0, 0.0, 0.0, 1.0]
],
  "dcmmeta_shape": [104, 104, 60, 202],
  "dcmmeta_slice_dim": 2,
  "dcmmeta_version": 0.6,
  "global": {
    "const": {
      "AcquisitionMatrix": [104, 0, 0, 104],
      "AngioFlag": "N",
      "BitsAllocated": 16,
      "BitsStored": 16,
      "BodyPartExamined": "BRAIN",
      "Columns": 832,
      "EchoNumbers": 1,
      "EchoTime": 37.0,
      "EchoTrainLength": 104,
      "FlipAngle": 52.0,
      "HighBit": 15,
      "ImageOrientationPatient": [0.9977446730137, 0.05454836422208, 0.03911576962652, -0.0332729332081, 0.90803263714485, -0.4175759114167],
      "ImagePositionPatient": [-802.66585622661, -837.14368784553, 294.37250557199],
      "ImageType": [
        "ORIGINAL",
        "PRIMARY",
        "P",
        "MB",
        "ND",
        "MOSAIC"
],
      "ImagedNucleus": "1H",
      "ImagingFrequency": 123.258995,
      "InPlanePhaseEncodingDirection": "COL",
      "LargestImagePixelValue": 4095,
      "MRAcquisitionType": "2D",
      "MagneticFieldStrength": 3.0,
      "Manufacturer": "SIEMENS",
      "ManufacturerModelName": "Prisma_fit",
      "Modality": "MR",
      "NumberOfAverages": 1.0,
      "NumberOfPhaseEncodingSteps": 104,
      "PercentPhaseFieldOfView": 100.0,
      "PercentSampling": 100.0,
      "PerformedProcedureStepStartTime": "181359.395000",
      "PhotometricInterpretation": "MONOCHROME2",
      "PixelBandwidth": 2290.0,
      "PixelRepresentation": 0,
      "PixelSpacing": [2.0, 2.0],
      "ProtocolName": "func_task-wedges",
      "RepetitionTime": 1490.0,
      "RescaleIntercept": -4096.0,
      "RescaleSlope": 2.0,
      "RescaleType": "US",
      "Rows": 832,
      "SAR": 0.03697586002928,
      "SamplesPerPixel": 1,
      "ScanOptions": "FS",
      "ScanningSequence": "EP",
      "SequenceName": "epfid2d1_104",
      "SequenceVariant": [
        "SK",
        "SS"
],
      "SeriesDescription": "func_task-wedges",
      "SeriesNumber": 11,
      "SeriesTime": "181857.323000",
      "SliceLocation": -33.669233841068,
      "SliceThickness": 2.0,
      "SmallestImagePixelValue": 0,
      "SoftwareVersions": "syngo MR E11",
      "SpacingBetweenSlices": 2.0000000712536,
      "SpecificCharacterSet": "ISO_IR 100",
      "StudyID": "1",
      "StudyTime": "181359.289000",
      "TransmitCoilName": "Body",
      "VariableFlipAngleFlag": "N",
      "WindowCenterWidthExplanation": "Algo1",
      "dBdt": 0.0},
    "slices": {}
  },
  "time": {
    "samples": {
      "AcquisitionNumber": [1, 2, 3, 4, 5, 6, 7, 8, 9, 10, 11, 12, 13, 14, 15, 16, 17, 18, 19, 20, 21, 22, 23, 24, 25, 26, 27, 28, 29, 30, 31, 32, 33, 34, 35, 36, 37, 38, 39, 40, 41, 42, 43, 44, 45, 46, 47, 48, 49, 50, 51, 52, 53, 54, 55, 56, 57, 58, 59, 60, 61, 62, 63, 64, 65, 66, 67, 68, 69, 70, 71, 72, 73, 74, 75, 76, 77, 78, 79, 80, 81, 82, 83, 84, 85, 86, 87, 88, 89, 90, 91, 92, 93, 94, 95, 96, 97, 98, 99, 100, 101, 102, 103, 104, 105, 106, 107, 108, 109, 110, 111, 112, 113, 114, 115, 116, 117, 118, 119, 120, 121, 122, 123, 124, 125, 126, 127, 128, 129, 130, 131, 132, 133, 134, 135, 136, 137, 138, 139, 140, 141, 142, 143, 144, 145, 146, 147, 148, 149, 150, 151, 152, 153, 154, 155, 156, 157, 158, 159, 160, 161, 162, 163, 164, 165, 166, 167, 168, 169, 170, 171, 172, 173, 174, 175, 176, 177, 178, 179, 180, 181, 182, 183, 184, 185, 186, 187, 188, 189, 190, 191, 192, 193, 194, 195, 196, 197, 198, 199, 200, 201, 202],
      "AcquisitionTime": ["181741.305000", "181742.795000", "181744.285000", "181745.775000", "181747.265000", "181748.755000", "181750.245000", "181751.735000", "181753.225000", "181754.715000", "181756.205000", "181757.695000", "181759.185000", "181800.675000", "181802.165000", "181803.655000", "181805.145000", "181806.635000", "181808.125000", "181809.615000", "181811.105000", "181812.595000", "181814.085000", "181815.575000", "181817.065000", "181818.555000", "181820.045000", "181821.535000", "181823.025000", "181824.515000", "181826.005000", "181827.495000", "181828.985000", "181830.475000", "181831.965000", "181833.455000", "181834.945000", "181836.435000", "181837.925000", "181839.415000", "181840.905000", "181842.395000", "181843.885000", "181845.375000", "181846.865000", "181848.355000", "181849.845000", "181851.335000", "181852.825000", "181854.315000", "181855.805000", "181857.295000", "181858.785000", "181900.275000", "181901.765000", "181903.255000", "181904.745000", "181906.235000", "181907.725000", "181909.215000", "181910.705000", "181912.195000", "181913.685000", "181915.175000", "181916.665000", "181918.155000", "181919.645000", "181921.135000", "181922.625000", "181924.115000", "181925.605000", "181927.095000", "181928.585000", "181930.075000", "181931.565000", "181933.055000", "181934.545000", "181936.035000", "181937.525000", "181939.015000", "181940.505000", "181941.995000", "181943.485000", "181944.975000", "181946.465000", "181947.955000", "181949.445000", "181950.935000", "181952.425000", "181953.915000", "181955.405000", "181956.895000", "181958.385000", "181959.875000", "182001.365000", "182002.855000", "182004.345000", "182005.835000", "182007.325000", "182008.815000", "182010.305000", "182011.795000", "182013.285000", "182014.775000", "182016.265000", "182017.755000", "182019.245000", "182020.735000", "182022.225000", "182023.715000", "182025.205000", "182026.695000", "182028.185000", "182029.675000", "182031.165000", "182032.655000", "182034.145000", "182035.635000", "182037.125000", "182038.615000", "182040.105000", "182041.595000", "182043.085000", "182044.575000", "182046.065000", "182047.555000", "182049.045000", "182050.535000", "182052.025000", "182053.515000", "182055.005000", "182056.495000", "182057.985000", "182059.475000", "182100.965000", "182102.455000", "182103.945000", "182105.435000", "182106.925000", "182108.415000", "182109.905000", "182111.395000", "182112.885000", "182114.375000", "182115.865000", "182117.355000", "182118.845000", "182120.335000", "182121.825000", "182123.315000", "182124.805000", "182126.295000", "182127.785000", "182129.275000", "182130.765000", "182132.255000", "182133.745000", "182135.235000", "182136.725000", "182138.215000", "182139.705000", "182141.195000", "182142.685000", "182144.175000", "182145.665000", "182147.155000", "182148.645000", "182150.135000", "182151.625000", "182153.115000", "182154.605000", "182156.095000", "182157.585000", "182159.075000", "182200.565000", "182202.055000", "182203.545000", "182205.035000", "182206.525000", "182208.015000", "182209.505000", "182210.995000", "182212.485000", "182213.975000", "182215.465000", "182216.955000", "182218.445000", "182219.935000", "182221.425000", "182222.915000", "182224.405000", "182225.895000", "182227.385000", "182228.875000", "182230.365000", "182231.855000", "182233.345000", "182234.835000", "182236.325000", "182237.815000", "182239.305000", "182240.795000"],
      "ContentTime": ["181857.325000", "181857.328000", "181857.330000", "181857.333000", "181857.335000", "181857.338000", "181857.340000", "181857.343000", "181857.345000", "181857.348000", "181857.350000", "181857.353000", "181857.355000", "181857.358000", "181857.360000", "181857.363000", "181857.365000", "181857.368000", "181857.370000", "181857.373000", "181857.375000", "181917.318000", "181917.321000", "181917.323000", "181917.326000", "181917.328000", "181917.331000", "181917.334000", "181917.336000", "181917.339000", "181917.341000", "181917.344000", "181917.346000", "181917.349000", "181917.351000", "181917.354000", "181917.357000", "181917.359000", "181917.362000", "181917.364000", "181917.367000", "181937.830000", "181937.833000", "181937.835000", "181937.838000", "181937.841000", "181937.843000", "181937.846000", "181937.848000", "181937.851000", "181937.853000", "181937.856000", "181937.859000", "181937.861000", "181937.864000", "181937.866000", "181937.869000", "181937.872000", "181937.874000", "181937.877000", "181937.880000", "181957.293000", "181957.296000", "181957.298000", "181957.301000", "181957.303000", "181957.306000", "181957.308000", "181957.320000", "181957.323000", "181957.325000", "181957.328000", "181957.330000", "181957.333000", "181957.335000", "181957.338000", "181957.340000", "181957.343000", "181957.345000", "181957.348000", "181957.350000", "181957.353000", "182017.298000", "182017.301000", "182017.303000", "182017.306000", "182017.308000", "182017.311000", "182017.313000", "182017.316000", "182017.318000", "182017.321000", "182017.323000", "182017.326000", "182017.328000", "182017.331000", "182017.333000", "182017.336000", "182017.338000", "182017.341000", "182017.343000", "182017.346000", "182057.352000", "182057.355000", "182057.357000", "182057.360000", "182057.362000", "182057.365000", "182057.367000", "182057.370000", "182057.373000", "182057.375000", "182057.378000", "182057.380000", "182057.383000", "182057.385000", "182057.388000", "182057.390000", "182057.393000", "182057.395000", "182057.398000", "182057.400000", "182057.403000", "182057.405000", "182057.408000", "182057.411000", "182057.413000", "182057.416000", "182057.418000", "182057.421000", "182137.319000", "182137.322000", "182137.324000", "182137.327000", "182137.329000", "182137.332000", "182137.334000", "182137.337000", "182137.348000", "182137.351000", "182137.353000", "182137.356000", "182137.359000", "182137.361000", "182137.364000", "182137.366000", "182137.369000", "182137.371000", "182137.374000", "182137.376000", "182137.379000", "182137.382000", "182137.385000", "182137.387000", "182137.390000", "182137.392000", "182137.395000", "182217.327000", "182217.330000", "182217.333000", "182217.335000", "182217.338000", "182217.340000", "182217.343000", "182217.345000", "182217.348000", "182217.350000", "182217.353000", "182217.356000", "182217.358000", "182217.361000", "182217.363000", "182217.366000", "182217.368000", "182217.371000", "182217.374000", "182217.376000", "182217.379000", "182217.381000", "182217.384000", "182217.387000", "182217.389000", "182217.392000", "182217.394000", "182243.177000", "182243.180000", "182243.182000", "182243.185000", "182243.188000", "182243.190000", "182243.199000", "182243.201000", "182243.204000", "182243.206000", "182243.209000", "182243.212000", "182243.214000", "182243.217000", "182243.219000", "182243.222000", "182243.225000", "182243.227000"],
      "InstanceCreationTime": ["181857.325000", "181857.328000", "181857.330000", "181857.333000", "181857.335000", "181857.338000", "181857.340000", "181857.343000", "181857.345000", "181857.348000", "181857.350000", "181857.353000", "181857.355000", "181857.358000", "181857.360000", "181857.363000", "181857.365000", "181857.368000", "181857.370000", "181857.373000", "181857.375000", "181917.318000", "181917.321000", "181917.323000", "181917.326000", "181917.328000", "181917.331000", "181917.334000", "181917.336000", "181917.339000", "181917.341000", "181917.344000", "181917.346000", "181917.349000", "181917.351000", "181917.354000", "181917.357000", "181917.359000", "181917.362000", "181917.364000", "181917.367000", "181937.830000", "181937.833000", "181937.835000", "181937.838000", "181937.841000", "181937.843000", "181937.846000", "181937.848000", "181937.851000", "181937.853000", "181937.856000", "181937.859000", "181937.861000", "181937.864000", "181937.866000", "181937.869000", "181937.872000", "181937.874000", "181937.877000", "181937.880000", "181957.293000", "181957.296000", "181957.298000", "181957.301000", "181957.303000", "181957.306000", "181957.308000", "181957.320000", "181957.323000", "181957.325000", "181957.328000", "181957.330000", "181957.333000", "181957.335000", "181957.338000", "181957.340000", "181957.343000", "181957.345000", "181957.348000", "181957.350000", "181957.353000", "182017.298000", "182017.301000", "182017.303000", "182017.306000", "182017.308000", "182017.311000", "182017.313000", "182017.316000", "182017.318000", "182017.321000", "182017.323000", "182017.326000", "182017.328000", "182017.331000", "182017.333000", "182017.336000", "182017.338000", "182017.341000", "182017.343000", "182017.346000", "182057.352000", "182057.355000", "182057.357000", "182057.360000", "182057.362000", "182057.365000", "182057.367000", "182057.370000", "182057.373000", "182057.375000", "182057.378000", "182057.380000", "182057.383000", "182057.385000", "182057.388000", "182057.390000", "182057.393000", "182057.395000", "182057.398000", "182057.400000", "182057.403000", "182057.405000", "182057.408000", "182057.411000", "182057.413000", "182057.416000", "182057.418000", "182057.421000", "182137.319000", "182137.322000", "182137.324000", "182137.327000", "182137.329000", "182137.332000", "182137.334000", "182137.337000", "182137.348000", "182137.351000", "182137.353000", "182137.356000", "182137.359000", "182137.361000", "182137.364000", "182137.366000", "182137.369000", "182137.371000", "182137.374000", "182137.376000", "182137.379000", "182137.382000", "182137.385000", "182137.387000", "182137.390000", "182137.392000", "182137.395000", "182217.327000", "182217.330000", "182217.333000", "182217.335000", "182217.338000", "182217.340000", "182217.343000", "182217.345000", "182217.348000", "182217.350000", "182217.353000", "182217.356000", "182217.358000", "182217.361000", "182217.363000", "182217.366000", "182217.368000", "182217.371000", "182217.374000", "182217.376000", "182217.379000", "182217.381000", "182217.384000", "182217.387000", "182217.389000", "182217.392000", "182217.394000", "182243.177000", "182243.180000", "182243.182000", "182243.185000", "182243.188000", "182243.190000", "182243.199000", "182243.201000", "182243.204000", "182243.206000", "182243.209000", "182243.212000", "182243.214000", "182243.217000", "182243.219000", "182243.222000", "182243.225000", "182243.227000"],
      "InstanceNumber": [1, 2, 3, 4, 5, 6, 7, 8, 9, 10, 11, 12, 13, 14, 15, 16, 17, 18, 19, 20, 21, 22, 23, 24, 25, 26, 27, 28, 29, 30, 31, 32, 33, 34, 35, 36, 37, 38, 39, 40, 41, 42, 43, 44, 45, 46, 47, 48, 49, 50, 51, 52, 53, 54, 55, 56, 57, 58, 59, 60, 61, 62, 63, 64, 65, 66, 67, 68, 69, 70, 71, 72, 73, 74, 75, 76, 77, 78, 79, 80, 81, 82, 83, 84, 85, 86, 87, 88, 89, 90, 91, 92, 93, 94, 95, 96, 97, 98, 99, 100, 101, 102, 103, 104, 105, 106, 107, 108, 109, 110, 111, 112, 113, 114, 115, 116, 117, 118, 119, 120, 121, 122, 123, 124, 125, 126, 127, 128, 129, 130, 131, 132, 133, 134, 135, 136, 137, 138, 139, 140, 141, 142, 143, 144, 145, 146, 147, 148, 149, 150, 151, 152, 153, 154, 155, 156, 157, 158, 159, 160, 161, 162, 163, 164, 165, 166, 167, 168, 169, 170, 171, 172, 173, 174, 175, 176, 177, 178, 179, 180, 181, 182, 183, 184, 185, 186, 187, 188, 189, 190, 191, 192, 193, 194, 195, 196, 197, 198, 199, 200, 201, 202],
      "WindowCenter": [4814.0, 4814.0, 4810.0, 4812.0, 4810.0, 4810.0, 4818.0, 4814.0, 4812.0, 4812.0, 4810.0, 4814.0, 4814.0, 4814.0, 4836.0, 4836.0, 4836.0, 4814.0, 4814.0, 4814.0, 4814.0, 4814.0, 4810.0, 4812.0, 4812.0, 4812.0, 4816.0, 4838.0, 4814.0, 4812.0, 4808.0, 4810.0, 4812.0, 4814.0, 4812.0, 4812.0, 4808.0, 4810.0, 4812.0, 4814.0, 4814.0, 4812.0, 4814.0, 4814.0, 4838.0, 4812.0, 4810.0, 4812.0, 4812.0, 4812.0, 4812.0, 4812.0, 4812.0, 4808.0, 4816.0, 4812.0, 4814.0, 4814.0, 4812.0, 4810.0, 4816.0, 4816.0, 4812.0, 4810.0, 4810.0, 4808.0, 4810.0, 4812.0, 4814.0, 4812.0, 4810.0, 4808.0, 4810.0, 4812.0, 4814.0, 4814.0, 4810.0, 4812.0, 4810.0, 4812.0, 4810.0, 4810.0, 4810.0, 4810.0, 4808.0, 4814.0, 4814.0, 4814.0, 4812.0, 4810.0, 4812.0, 4812.0, 4810.0, 4810.0, 4812.0, 4814.0, 4816.0, 4810.0, 4812.0, 4814.0, 4808.0, 4810.0, 4812.0, 4810.0, 4816.0, 4812.0, 4810.0, 4808.0, 4812.0, 4816.0, 4812.0, 4812.0, 4810.0, 4812.0, 4810.0, 4814.0, 4812.0, 4814.0, 4812.0, 4812.0, 4812.0, 4812.0, 4812.0, 4814.0, 4814.0, 4812.0, 4814.0, 4814.0, 4814.0, 4814.0, 4812.0, 4810.0, 4812.0, 4812.0, 4812.0, 4816.0, 4814.0, 4812.0, 4814.0, 4816.0, 4816.0, 4812.0, 4812.0, 4814.0, 4812.0, 4816.0, 4816.0, 4816.0, 4814.0, 4814.0, 4810.0, 4810.0, 4810.0, 4816.0, 4812.0, 4812.0, 4812.0, 4812.0, 4810.0, 4818.0, 4810.0, 4816.0, 4812.0, 4810.0, 4810.0, 4812.0, 4812.0, 4814.0, 4814.0, 4814.0, 4812.0, 4808.0, 4812.0, 4812.0, 4816.0, 4812.0, 4808.0, 4808.0, 4784.0, 4810.0, 4816.0, 4812.0, 4814.0, 4810.0, 4812.0, 4814.0, 4816.0, 4812.0, 4814.0, 4812.0, 4812.0, 4806.0, 4806.0, 4814.0, 4814.0, 4814.0, 4816.0, 4810.0, 4812.0, 4814.0, 4814.0, 4812.0],
      "WindowWidth": [18606.0, 18602.0, 18596.0, 18600.0, 18600.0, 18604.0, 18610.0, 18608.0, 18604.0, 18598.0, 18602.0, 18610.0, 18602.0, 18602.0, 18630.0, 18634.0, 18632.0, 18606.0, 18610.0, 18606.0, 18606.0, 18600.0, 18594.0, 18594.0, 18608.0, 18608.0, 18606.0, 18632.0, 18598.0, 18602.0, 18600.0, 18600.0, 18606.0, 18612.0, 18606.0, 18602.0, 18596.0, 18600.0, 18604.0, 18602.0, 18602.0, 18602.0, 18608.0, 18608.0, 18640.0, 18600.0, 18596.0, 18600.0, 18600.0, 18610.0, 18606.0, 18602.0, 18600.0, 18598.0, 18606.0, 18610.0, 18606.0, 18602.0, 18600.0, 18602.0, 18606.0, 18612.0, 18608.0, 18602.0, 18594.0, 18600.0, 18600.0, 18608.0, 18606.0, 18604.0, 18598.0, 18596.0, 18602.0, 18602.0, 18608.0, 18600.0, 18602.0, 18606.0, 18606.0, 18604.0, 18598.0, 18598.0, 18598.0, 18596.0, 18606.0, 18610.0, 18604.0, 18602.0, 18602.0, 18600.0, 18608.0, 18604.0, 18598.0, 18598.0, 18600.0, 18608.0, 18610.0, 18600.0, 18602.0, 18594.0, 18600.0, 18594.0, 18600.0, 18604.0, 18610.0, 18598.0, 18596.0, 18596.0, 18604.0, 18608.0, 18600.0, 18602.0, 18598.0, 18598.0, 18600.0, 18610.0, 18606.0, 18606.0, 18604.0, 18602.0, 18598.0, 18600.0, 18604.0, 18608.0, 18606.0, 18604.0, 18606.0, 18604.0, 18602.0, 18608.0, 18604.0, 18596.0, 18598.0, 18604.0, 18602.0, 18608.0, 18600.0, 18598.0, 18606.0, 18608.0, 18608.0, 18604.0, 18598.0, 18602.0, 18600.0, 18604.0, 18608.0, 18608.0, 18604.0, 18606.0, 18600.0, 18598.0, 18598.0, 18606.0, 18608.0, 18604.0, 18604.0, 18600.0, 18598.0, 18604.0, 18606.0, 18606.0, 18596.0, 18600.0, 18598.0, 18602.0, 18604.0, 18604.0, 18602.0, 18606.0, 18598.0, 18600.0, 18604.0, 18606.0, 18610.0, 18604.0, 18596.0, 18598.0, 18564.0, 18604.0, 18608.0, 18604.0, 18604.0, 18602.0, 18600.0, 18604.0, 18610.0, 18604.0, 18608.0, 18600.0, 18596.0, 18598.0, 18590.0, 18606.0, 18606.0, 18606.0, 18612.0, 18604.0, 18602.0, 18604.0, 18598.0, 18604.0]
    },
    "slices": {}
  }
}