{
  "AcquisitionMatrixPE": 104,
  "AcquisitionNumber": 1,
  "AcquisitionTime": "11:42:59.262500",
  "BandwidthPerPixelPhaseEncode": 17.17,
  "BaseResolution": 104,
  "BodyPartExamined": "BRAIN",
  "CoilString": "HC1-7;NC1_2",
  "ConsistencyInfo": "N4_VE11C_LATEST_20160120",
  "ConversionSoftware": "dcm2niix",
  "ConversionSoftwareVersion": "v1.0.20190902",
  "DerivedVendorReportedEchoSpacing": 0.000560011,
  "DeviceSerialNumber": "167006",
  "DwellTime": 2.1e-06,
  "EchoTime": 0.037,
  "EchoTrainLength": 104,
  "EffectiveEchoSpacing": 0.000560011,
  "FlipAngle": 52,
  "ImageComments": "Unaliased_MB4_PE3_LB",
  "ImageOrientationPatientDICOM": [0.999424, 0.00546975, 0.0334876, 0.0136065, 0.839492, -0.543202],
  "ImageType": [
    "ORIGINAL",
    "PRIMARY",
    "P",
    "MB",
    "ND",
    "MOSAIC"
],
  "ImagingFrequency": 123.259,
  "InPlanePhaseEncodingDirectionDICOM": "COL",
  "InstitutionAddress": "Chemin_Queen-Mary_4565_Montreal_District_CA_H3W_1W5",
  "InstitutionName": "IUGM",
  "InstitutionalDepartmentName": "Department",
  "MRAcquisitionType": "2D",
  "MagneticFieldStrength": 3,
  "Manufacturer": "Siemens",
  "ManufacturersModelName": "Prisma_fit",
  "Modality": "MR",
  "MultibandAccelerationFactor": 4,
  "PartialFourier": 1,
  "PatientPosition": "HFS",
  "PercentPhaseFOV": 100,
  "PhaseEncodingDirection": "j",
  "PhaseEncodingSteps": 104,
  "PhaseResolution": 1,
  "PixelBandwidth": 2290,
  "ProcedureStepDescription": "localizers_retinotopy",
  "ProtocolName": "func_task-rings",
  "PulseSequenceDetails": "%CustomerSeq%_cmrr_mbep2d_bold",
  "ReceiveCoilActiveElements": "HC1-7;NC1,2",
  "ReceiveCoilName": "HeadNeck_64",
  "ReconMatrixPE": 104,
  "RepetitionTime": 1.49,
  "SAR": 0.0614484,
  "ScanOptions": "FS",
  "ScanningSequence": "EP",
  "SequenceName": "epfid2d1_104",
  "SequenceVariant": "SK_SS",
  "SeriesDescription": "func_task-rings",
  "SeriesNumber": 14,
  "ShimSetting": [613, -7183, -8874, 261, -42, -159, 37, -36],
  "SliceThickness": 2,
  "SliceTiming": [0, 0.785, 0.1, 0.8825, 0.1975, 0.98, 0.295, 1.08, 0.3925, 1.1775, 0.49, 1.275, 0.59, 1.3725, 0.6875, 0, 0.785, 0.1, 0.8825, 0.1975, 0.98, 0.295, 1.08, 0.3925, 1.1775, 0.49, 1.275, 0.59, 1.3725, 0.6875, 0, 0.785, 0.1, 0.8825, 0.1975, 0.98, 0.295, 1.08, 0.3925, 1.1775, 0.49, 1.275, 0.59, 1.3725, 0.6875, 0, 0.785, 0.1, 0.8825, 0.1975, 0.98, 0.295, 1.08, 0.3925, 1.1775, 0.49, 1.275, 0.59, 1.3725, 0.6875],
  "SoftwareVersions": "syngo_MR_E11",
  "SpacingBetweenSlices": 2,
  "StationName": "MRC35049",
  "TaskName": "rings",
  "TotalReadoutTime": 0.0576811,
  "TxRefAmp": 296.328,
  "WipMemBlock": "1041fd53-48e3-4180-87c7-077213eae39a||Sequence: R016 ve11c/master r/e634e98; Dec 19 2017 11:00:25 by eja",
  "dcmmeta_affine": [
    [-1.99884831905365, 0.027213092893362045, 0.0621674507856369, 104.39657592773438],
    [-0.010939497500658035, 1.6789835691452026, -1.0866897106170654, -47.00421142578125],
    [0.06697516143321991, 1.0864039659500122, 1.6778678894042969, -95.97465515136719],
    [0.0, 0.0, 0.0, 1.0]
],
  "dcmmeta_reorient_transform": [
    [0.0, -1.0, 0.0, 103.0],
    [1.0, 0.0, 0.0, 0.0],
    [0.0, 0.0, 1.0, 0.0],
    [0.0, 0.0, 0.0, 1.0]
],
  "dcmmeta_shape": [104, 104, 60, 202],
  "dcmmeta_slice_dim": 2,
  "dcmmeta_version": 0.6,
  "global": {
    "const": {
      "AcquisitionMatrix": [104, 0, 0, 104],
      "AngioFlag": "N",
      "BitsAllocated": 16,
      "BitsStored": 16,
      "BodyPartExamined": "BRAIN",
      "Columns": 832,
      "EchoNumbers": 1,
      "EchoTime": 37.0,
      "EchoTrainLength": 104,
      "FlipAngle": 52.0,
      "HighBit": 15,
      "ImageOrientationPatient": [0.99942416612844, 0.00546974854941, 0.03348757992577, 0.01360654667885, 0.83949177805581, -0.5432020033691],
      "ImagePositionPatient": [-844.6858836049, -741.06308580815, 386.9970578976],
      "ImageType": [
        "ORIGINAL",
        "PRIMARY",
        "P",
        "MB",
        "ND",
        "MOSAIC"
],
      "ImagedNucleus": "1H",
      "ImagingFrequency": 123.25919,
      "InPlanePhaseEncodingDirection": "COL",
      "LargestImagePixelValue": 4095,
      "MRAcquisitionType": "2D",
      "MagneticFieldStrength": 3.0,
      "Manufacturer": "SIEMENS",
      "ManufacturerModelName": "Prisma_fit",
      "Modality": "MR",
      "NumberOfAverages": 1.0,
      "NumberOfPhaseEncodingSteps": 104,
      "PercentPhaseFieldOfView": 100.0,
      "PercentSampling": 100.0,
      "PerformedProcedureStepStartTime": "113241.190000",
      "PhotometricInterpretation": "MONOCHROME2",
      "PixelBandwidth": 2290.0,
      "PixelRepresentation": 0,
      "PixelSpacing": [2.0, 2.0],
      "ProtocolName": "func_task-rings",
      "RepetitionTime": 1490.0,
      "RescaleIntercept": -4096.0,
      "RescaleSlope": 2.0,
      "RescaleType": "US",
      "Rows": 832,
      "SAR": 0.0614484340988,
      "SamplesPerPixel": 1,
      "ScanOptions": "FS",
      "ScanningSequence": "EP",
      "SequenceName": "epfid2d1_104",
      "SequenceVariant": [
        "SK",
        "SS"
],
      "SeriesDescription": "func_task-rings",
      "SeriesNumber": 14,
      "SeriesTime": "114415.023000",
      "SliceLocation": -51.731864587715,
      "SliceThickness": 2.0,
      "SmallestImagePixelValue": 0,
      "SoftwareVersions": "syngo MR E11",
      "SpacingBetweenSlices": 1.9999999912702,
      "SpecificCharacterSet": "ISO_IR 100",
      "StudyID": "1",
      "StudyTime": "113241.119000",
      "TransmitCoilName": "Body",
      "VariableFlipAngleFlag": "N",
      "WindowCenterWidthExplanation": "Algo1",
      "dBdt": 0.0},
    "slices": {}
  },
  "time": {
    "samples": {
      "AcquisitionNumber": [1, 2, 3, 4, 5, 6, 7, 8, 9, 10, 11, 12, 13, 14, 15, 16, 17, 18, 19, 20, 21, 22, 23, 24, 25, 26, 27, 28, 29, 30, 31, 32, 33, 34, 35, 36, 37, 38, 39, 40, 41, 42, 43, 44, 45, 46, 47, 48, 49, 50, 51, 52, 53, 54, 55, 56, 57, 58, 59, 60, 61, 62, 63, 64, 65, 66, 67, 68, 69, 70, 71, 72, 73, 74, 75, 76, 77, 78, 79, 80, 81, 82, 83, 84, 85, 86, 87, 88, 89, 90, 91, 92, 93, 94, 95, 96, 97, 98, 99, 100, 101, 102, 103, 104, 105, 106, 107, 108, 109, 110, 111, 112, 113, 114, 115, 116, 117, 118, 119, 120, 121, 122, 123, 124, 125, 126, 127, 128, 129, 130, 131, 132, 133, 134, 135, 136, 137, 138, 139, 140, 141, 142, 143, 144, 145, 146, 147, 148, 149, 150, 151, 152, 153, 154, 155, 156, 157, 158, 159, 160, 161, 162, 163, 164, 165, 166, 167, 168, 169, 170, 171, 172, 173, 174, 175, 176, 177, 178, 179, 180, 181, 182, 183, 184, 185, 186, 187, 188, 189, 190, 191, 192, 193, 194, 195, 196, 197, 198, 199, 200, 201, 202],
      "AcquisitionTime": ["114259.262500", "114300.752500", "114302.242500", "114303.732500", "114305.222500", "114306.712500", "114308.202500", "114309.692500", "114311.182500", "114312.672500", "114314.162500", "114315.652500", "114317.142500", "114318.632500", "114320.122500", "114321.612500", "114323.102500", "114324.592500", "114326.082500", "114327.572500", "114329.062500", "114330.552500", "114332.042500", "114333.532500", "114335.022500", "114336.512500", "114338.002500", "114339.492500", "114340.982500", "114342.472500", "114343.962500", "114345.452500", "114346.942500", "114348.432500", "114349.922500", "114351.412500", "114352.902500", "114354.392500", "114355.882500", "114357.372500", "114358.862500", "114400.352500", "114401.842500", "114403.332500", "114404.822500", "114406.312500", "114407.802500", "114409.292500", "114410.782500", "114412.272500", "114413.762500", "114415.252500", "114416.742500", "114418.232500", "114419.722500", "114421.212500", "114422.702500", "114424.192500", "114425.682500", "114427.172500", "114428.662500", "114430.152500", "114431.642500", "114433.132500", "114434.622500", "114436.112500", "114437.602500", "114439.092500", "114440.582500", "114442.072500", "114443.562500", "114445.052500", "114446.542500", "114448.032500", "114449.522500", "114451.012500", "114452.502500", "114453.992500", "114455.482500", "114456.972500", "114458.462500", "114459.952500", "114501.442500", "114502.932500", "114504.422500", "114505.912500", "114507.402500", "114508.892500", "114510.382500", "114511.872500", "114513.362500", "114514.852500", "114516.342500", "114517.832500", "114519.322500", "114520.812500", "114522.302500", "114523.792500", "114525.282500", "114526.772500", "114528.262500", "114529.752500", "114531.242500", "114532.732500", "114534.222500", "114535.712500", "114537.202500", "114538.692500", "114540.182500", "114541.672500", "114543.162500", "114544.652500", "114546.142500", "114547.632500", "114549.122500", "114550.612500", "114552.102500", "114553.592500", "114555.082500", "114556.572500", "114558.062500", "114559.552500", "114601.042500", "114602.532500", "114604.022500", "114605.512500", "114607.002500", "114608.492500", "114609.982500", "114611.472500", "114612.962500", "114614.452500", "114615.942500", "114617.432500", "114618.922500", "114620.412500", "114621.902500", "114623.392500", "114624.882500", "114626.372500", "114627.862500", "114629.352500", "114630.842500", "114632.332500", "114633.822500", "114635.312500", "114636.802500", "114638.292500", "114639.782500", "114641.272500", "114642.762500", "114644.252500", "114645.742500", "114647.232500", "114648.722500", "114650.212500", "114651.702500", "114653.192500", "114654.682500", "114656.172500", "114657.662500", "114659.152500", "114700.642500", "114702.132500", "114703.622500", "114705.112500", "114706.602500", "114708.092500", "114709.582500", "114711.072500", "114712.562500", "114714.052500", "114715.542500", "114717.032500", "114718.522500", "114720.012500", "114721.502500", "114722.992500", "114724.482500", "114725.972500", "114727.462500", "114728.952500", "114730.442500", "114731.932500", "114733.422500", "114734.912500", "114736.402500", "114737.892500", "114739.382500", "114740.872500", "114742.362500", "114743.852500", "114745.342500", "114746.832500", "114748.322500", "114749.812500", "114751.302500", "114752.792500", "114754.282500", "114755.772500", "114757.262500", "114758.752500"],
      "ContentTime": ["114415.025000", "114415.028000", "114415.030000", "114415.033000", "114415.035000", "114415.038000", "114415.040000", "114415.043000", "114415.046000", "114415.048000", "114415.051000", "114415.053000", "114415.056000", "114415.058000", "114415.061000", "114415.063000", "114415.066000", "114415.068000", "114415.071000", "114415.073000", "114435.051000", "114435.053000", "114435.056000", "114435.063000", "114435.066000", "114435.068000", "114435.071000", "114435.074000", "114435.076000", "114435.079000", "114435.081000", "114435.084000", "114435.086000", "114435.089000", "114435.091000", "114435.094000", "114435.097000", "114435.099000", "114435.102000", "114435.104000", "114455.061000", "114455.064000", "114455.066000", "114455.069000", "114455.072000", "114455.074000", "114455.077000", "114455.079000", "114455.082000", "114455.084000", "114455.087000", "114455.090000", "114455.092000", "114455.095000", "114455.097000", "114455.100000", "114455.102000", "114455.105000", "114455.107000", "114455.110000", "114455.112000", "114515.038000", "114515.040000", "114515.043000", "114515.046000", "114515.048000", "114515.051000", "114515.053000", "114515.056000", "114515.058000", "114515.061000", "114515.064000", "114515.066000", "114515.069000", "114515.071000", "114515.074000", "114515.076000", "114515.079000", "114515.081000", "114515.084000", "114515.086000", "114535.030000", "114535.033000", "114535.036000", "114535.038000", "114535.041000", "114535.043000", "114535.046000", "114535.049000", "114535.051000", "114535.054000", "114535.056000", "114535.059000", "114535.061000", "114535.064000", "114535.066000", "114535.069000", "114535.071000", "114535.074000", "114535.077000", "114535.079000", "114615.085000", "114615.088000", "114615.091000", "114615.093000", "114615.096000", "114615.099000", "114615.101000", "114615.104000", "114615.106000", "114615.109000", "114615.112000", "114615.114000", "114615.117000", "114615.119000", "114615.122000", "114615.125000", "114615.127000", "114615.130000", "114615.132000", "114615.135000", "114615.138000", "114615.140000", "114615.143000", "114615.145000", "114615.148000", "114615.150000", "114615.153000", "114615.156000", "114615.158000", "114615.161000", "114655.064000", "114655.067000", "114655.069000", "114655.072000", "114655.074000", "114655.077000", "114655.079000", "114655.082000", "114655.085000", "114655.087000", "114655.090000", "114655.092000", "114655.095000", "114655.097000", "114655.100000", "114655.102000", "114655.105000", "114655.107000", "114655.110000", "114655.112000", "114655.115000", "114655.117000", "114655.120000", "114655.122000", "114655.125000", "114655.128000", "114735.071000", "114735.074000", "114735.077000", "114735.079000", "114735.082000", "114735.084000", "114735.087000", "114735.090000", "114735.092000", "114735.095000", "114735.097000", "114735.100000", "114735.102000", "114735.105000", "114735.107000", "114735.110000", "114735.112000", "114735.115000", "114735.118000", "114735.120000", "114735.123000", "114735.125000", "114735.128000", "114735.130000", "114735.133000", "114735.135000", "114735.138000", "114800.660000", "114800.663000", "114800.666000", "114800.668000", "114800.671000", "114800.674000", "114800.677000", "114800.679000", "114800.682000", "114800.689000", "114800.692000", "114800.695000", "114800.697000", "114800.700000", "114800.703000", "114800.706000", "114800.708000", "114800.711000"],
      "InstanceCreationTime": ["114415.025000", "114415.028000", "114415.030000", "114415.033000", "114415.035000", "114415.038000", "114415.040000", "114415.043000", "114415.046000", "114415.048000", "114415.051000", "114415.053000", "114415.056000", "114415.058000", "114415.061000", "114415.063000", "114415.066000", "114415.068000", "114415.071000", "114415.073000", "114435.051000", "114435.053000", "114435.056000", "114435.063000", "114435.066000", "114435.068000", "114435.071000", "114435.074000", "114435.076000", "114435.079000", "114435.081000", "114435.084000", "114435.086000", "114435.089000", "114435.091000", "114435.094000", "114435.097000", "114435.099000", "114435.102000", "114435.104000", "114455.061000", "114455.064000", "114455.066000", "114455.069000", "114455.072000", "114455.074000", "114455.077000", "114455.079000", "114455.082000", "114455.084000", "114455.087000", "114455.090000", "114455.092000", "114455.095000", "114455.097000", "114455.100000", "114455.102000", "114455.105000", "114455.107000", "114455.110000", "114455.112000", "114515.038000", "114515.040000", "114515.043000", "114515.046000", "114515.048000", "114515.051000", "114515.053000", "114515.056000", "114515.058000", "114515.061000", "114515.064000", "114515.066000", "114515.069000", "114515.071000", "114515.074000", "114515.076000", "114515.079000", "114515.081000", "114515.084000", "114515.086000", "114535.030000", "114535.033000", "114535.036000", "114535.038000", "114535.041000", "114535.043000", "114535.046000", "114535.049000", "114535.051000", "114535.054000", "114535.056000", "114535.059000", "114535.061000", "114535.064000", "114535.066000", "114535.069000", "114535.071000", "114535.074000", "114535.077000", "114535.079000", "114615.085000", "114615.088000", "114615.091000", "114615.093000", "114615.096000", "114615.099000", "114615.101000", "114615.104000", "114615.106000", "114615.109000", "114615.112000", "114615.114000", "114615.117000", "114615.119000", "114615.122000", "114615.125000", "114615.127000", "114615.130000", "114615.132000", "114615.135000", "114615.138000", "114615.140000", "114615.143000", "114615.145000", "114615.148000", "114615.150000", "114615.153000", "114615.156000", "114615.158000", "114615.161000", "114655.064000", "114655.067000", "114655.069000", "114655.072000", "114655.074000", "114655.077000", "114655.079000", "114655.082000", "114655.085000", "114655.087000", "114655.090000", "114655.092000", "114655.095000", "114655.097000", "114655.100000", "114655.102000", "114655.105000", "114655.107000", "114655.110000", "114655.112000", "114655.115000", "114655.117000", "114655.120000", "114655.122000", "114655.125000", "114655.128000", "114735.071000", "114735.074000", "114735.077000", "114735.079000", "114735.082000", "114735.084000", "114735.087000", "114735.090000", "114735.092000", "114735.095000", "114735.097000", "114735.100000", "114735.102000", "114735.105000", "114735.107000", "114735.110000", "114735.112000", "114735.115000", "114735.118000", "114735.120000", "114735.123000", "114735.125000", "114735.128000", "114735.130000", "114735.133000", "114735.135000", "114735.138000", "114800.660000", "114800.663000", "114800.666000", "114800.668000", "114800.671000", "114800.674000", "114800.677000", "114800.679000", "114800.682000", "114800.689000", "114800.692000", "114800.695000", "114800.697000", "114800.700000", "114800.703000", "114800.706000", "114800.708000", "114800.711000"],
      "InstanceNumber": [1, 2, 3, 4, 5, 6, 7, 8, 9, 10, 11, 12, 13, 14, 15, 16, 17, 18, 19, 20, 21, 22, 23, 24, 25, 26, 27, 28, 29, 30, 31, 32, 33, 34, 35, 36, 37, 38, 39, 40, 41, 42, 43, 44, 45, 46, 47, 48, 49, 50, 51, 52, 53, 54, 55, 56, 57, 58, 59, 60, 61, 62, 63, 64, 65, 66, 67, 68, 69, 70, 71, 72, 73, 74, 75, 76, 77, 78, 79, 80, 81, 82, 83, 84, 85, 86, 87, 88, 89, 90, 91, 92, 93, 94, 95, 96, 97, 98, 99, 100, 101, 102, 103, 104, 105, 106, 107, 108, 109, 110, 111, 112, 113, 114, 115, 116, 117, 118, 119, 120, 121, 122, 123, 124, 125, 126, 127, 128, 129, 130, 131, 132, 133, 134, 135, 136, 137, 138, 139, 140, 141, 142, 143, 144, 145, 146, 147, 148, 149, 150, 151, 152, 153, 154, 155, 156, 157, 158, 159, 160, 161, 162, 163, 164, 165, 166, 167, 168, 169, 170, 171, 172, 173, 174, 175, 176, 177, 178, 179, 180, 181, 182, 183, 184, 185, 186, 187, 188, 189, 190, 191, 192, 193, 194, 195, 196, 197, 198, 199, 200, 201, 202],
      "WindowCenter": [4850.0, 4850.0, 4852.0, 4852.0, 4824.0, 4812.0, 4812.0, 4814.0, 4820.0, 4824.0, 4818.0, 4846.0, 4846.0, 4846.0, 4848.0, 4782.0, 4778.0, 4778.0, 4808.0, 4824.0, 4816.0, 4816.0, 4816.0, 4848.0, 4820.0, 4826.0, 4826.0, 4820.0, 4782.0, 4788.0, 4812.0, 4824.0, 4818.0, 4814.0, 4818.0, 4816.0, 4824.0, 4822.0, 4848.0, 4844.0, 4826.0, 4852.0, 4852.0, 4854.0, 4828.0, 4812.0, 4816.0, 4816.0, 4820.0, 4848.0, 4824.0, 4818.0, 4818.0, 4816.0, 4820.0, 4848.0, 4850.0, 4816.0, 4788.0, 4782.0, 4816.0, 4826.0, 4850.0, 4816.0, 4818.0, 4846.0, 4824.0, 4850.0, 4816.0, 4808.0, 4780.0, 4810.0, 4858.0, 4850.0, 4822.0, 4850.0, 4850.0, 4822.0, 4854.0, 4862.0, 4860.0, 4850.0, 4818.0, 4816.0, 4820.0, 4822.0, 4824.0, 4816.0, 4816.0, 4818.0, 4820.0, 4818.0, 4850.0, 4830.0, 4818.0, 4818.0, 4818.0, 4826.0, 4848.0, 4848.0, 4822.0, 4816.0, 4820.0, 4822.0, 4826.0, 4824.0, 4820.0, 4820.0, 4848.0, 4824.0, 4826.0, 4822.0, 4820.0, 4818.0, 4822.0, 4846.0, 4824.0, 4826.0, 4826.0, 4822.0, 4850.0, 4846.0, 4828.0, 4826.0, 4824.0, 4828.0, 4826.0, 4824.0, 4830.0, 4848.0, 4828.0, 4828.0, 4824.0, 4822.0, 4826.0, 4848.0, 4822.0, 4828.0, 4824.0, 4824.0, 4822.0, 4848.0, 4822.0, 4824.0, 4822.0, 4826.0, 4846.0, 4828.0, 4822.0, 4826.0, 4828.0, 4828.0, 4826.0, 4824.0, 4848.0, 4828.0, 4824.0, 4824.0, 4848.0, 4822.0, 4848.0, 4824.0, 4850.0, 4848.0, 4852.0, 4816.0, 4816.0, 4808.0, 4822.0, 4822.0, 4850.0, 4820.0, 4818.0, 4818.0, 4820.0, 4850.0, 4826.0, 4826.0, 4858.0, 4850.0, 4826.0, 4828.0, 4822.0, 4824.0, 4846.0, 4826.0, 4826.0, 4822.0, 4850.0, 4822.0, 4842.0, 4850.0, 4828.0, 4820.0, 4824.0, 4822.0, 4826.0, 4822.0, 4820.0, 4816.0, 4818.0, 4820.0],
      "WindowWidth": [18648.0, 18626.0, 18606.0, 18634.0, 18612.0, 18602.0, 18612.0, 18608.0, 18614.0, 18618.0, 18590.0, 18616.0, 18616.0, 18616.0, 18648.0, 18562.0, 18560.0, 18560.0, 18608.0, 18618.0, 18596.0, 18590.0, 18586.0, 18620.0, 18586.0, 18622.0, 18614.0, 18606.0, 18566.0, 18574.0, 18604.0, 18620.0, 18604.0, 18590.0, 18586.0, 18592.0, 18608.0, 18622.0, 18652.0, 18646.0, 18614.0, 18604.0, 18602.0, 18650.0, 18612.0, 18604.0, 18608.0, 18606.0, 18616.0, 18648.0, 18612.0, 18604.0, 18596.0, 18598.0, 18580.0, 18602.0, 18634.0, 18606.0, 18570.0, 18562.0, 18610.0, 18618.0, 18654.0, 18600.0, 18584.0, 18606.0, 18582.0, 18648.0, 18604.0, 18594.0, 18560.0, 18598.0, 18636.0, 18608.0, 18584.0, 18632.0, 18650.0, 18616.0, 18640.0, 18630.0, 18636.0, 18652.0, 18614.0, 18608.0, 18616.0, 18620.0, 18618.0, 18600.0, 18596.0, 18590.0, 18576.0, 18598.0, 18652.0, 18614.0, 18610.0, 18614.0, 18610.0, 18616.0, 18654.0, 18636.0, 18586.0, 18598.0, 18596.0, 18616.0, 18618.0, 18620.0, 18614.0, 18620.0, 18654.0, 18618.0, 18620.0, 18606.0, 18602.0, 18600.0, 18610.0, 18648.0, 18618.0, 18622.0, 18616.0, 18620.0, 18646.0, 18654.0, 18618.0, 18618.0, 18616.0, 18618.0, 18620.0, 18622.0, 18614.0, 18648.0, 18610.0, 18622.0, 18614.0, 18612.0, 18618.0, 18654.0, 18620.0, 18628.0, 18622.0, 18616.0, 18616.0, 18640.0, 18616.0, 18604.0, 18618.0, 18612.0, 18652.0, 18618.0, 18620.0, 18616.0, 18622.0, 18622.0, 18620.0, 18620.0, 18644.0, 18622.0, 18610.0, 18618.0, 18638.0, 18620.0, 18646.0, 18622.0, 18626.0, 18600.0, 18644.0, 18608.0, 18608.0, 18600.0, 18612.0, 18620.0, 18644.0, 18600.0, 18600.0, 18590.0, 18602.0, 18648.0, 18620.0, 18614.0, 18638.0, 18652.0, 18620.0, 18624.0, 18618.0, 18620.0, 18650.0, 18618.0, 18618.0, 18604.0, 18646.0, 18586.0, 18630.0, 18646.0, 18618.0, 18620.0, 18616.0, 18620.0, 18620.0, 18624.0, 18596.0, 18596.0, 18608.0, 18600.0]
    },
    "slices": {}
  }
}