{
  "AcquisitionMatrixPE": 104,
  "AcquisitionNumber": 1,
  "AcquisitionTime": "11:36:31.530000",
  "BandwidthPerPixelPhaseEncode": 17.17,
  "BaseResolution": 104,
  "BodyPartExamined": "BRAIN",
  "CoilString": "HC1-7;NC1_2",
  "ConsistencyInfo": "N4_VE11C_LATEST_20160120",
  "ConversionSoftware": "dcm2niix",
  "ConversionSoftwareVersion": "v1.0.20190902",
  "DerivedVendorReportedEchoSpacing": 0.000560011,
  "DeviceSerialNumber": "167006",
  "DwellTime": 2.1e-06,
  "EchoTime": 0.037,
  "EchoTrainLength": 104,
  "EffectiveEchoSpacing": 0.000560011,
  "FlipAngle": 52,
  "ImageComments": "Unaliased_MB4_PE3_LB",
  "ImageOrientationPatientDICOM": [0.999424, 0.00546975, 0.0334876, 0.0136065, 0.839492, -0.543202],
  "ImageType": [
    "ORIGINAL",
    "PRIMARY",
    "M",
    "MB",
    "ND",
    "MOSAIC"
],
  "ImagingFrequency": 123.259,
  "InPlanePhaseEncodingDirectionDICOM": "COL",
  "InstitutionAddress": "Chemin_Queen-Mary_4565_Montreal_District_CA_H3W_1W5",
  "InstitutionName": "IUGM",
  "InstitutionalDepartmentName": "Department",
  "MRAcquisitionType": "2D",
  "MagneticFieldStrength": 3,
  "Manufacturer": "Siemens",
  "ManufacturersModelName": "Prisma_fit",
  "Modality": "MR",
  "MultibandAccelerationFactor": 4,
  "PartialFourier": 1,
  "PatientPosition": "HFS",
  "PercentPhaseFOV": 100,
  "PhaseEncodingDirection": "j",
  "PhaseEncodingSteps": 104,
  "PhaseResolution": 1,
  "PixelBandwidth": 2290,
  "ProcedureStepDescription": "localizers_retinotopy",
  "ProtocolName": "func_task-wedges",
  "PulseSequenceDetails": "%CustomerSeq%_cmrr_mbep2d_bold",
  "ReceiveCoilActiveElements": "HC1-7;NC1,2",
  "ReceiveCoilName": "HeadNeck_64",
  "ReconMatrixPE": 104,
  "RepetitionTime": 1.49,
  "SAR": 0.0614484,
  "ScanOptions": "FS",
  "ScanningSequence": "EP",
  "SequenceName": "epfid2d1_104",
  "SequenceVariant": "SK_SS",
  "SeriesDescription": "func_task-wedges",
  "SeriesNumber": 10,
  "ShimSetting": [613, -7183, -8874, 261, -42, -159, 37, -36],
  "SliceThickness": 2,
  "SliceTiming": [0, 0.7825, 0.0975, 0.8825, 0.195, 0.98, 0.2925, 1.0775, 0.3925, 1.175, 0.49, 1.2725, 0.5875, 1.3725, 0.685, 0, 0.7825, 0.0975, 0.8825, 0.195, 0.98, 0.2925, 1.0775, 0.3925, 1.175, 0.49, 1.2725, 0.5875, 1.3725, 0.685, 0, 0.7825, 0.0975, 0.8825, 0.195, 0.98, 0.2925, 1.0775, 0.3925, 1.175, 0.49, 1.2725, 0.5875, 1.3725, 0.685, 0, 0.7825, 0.0975, 0.8825, 0.195, 0.98, 0.2925, 1.0775, 0.3925, 1.175, 0.49, 1.2725, 0.5875, 1.3725, 0.685],
  "SoftwareVersions": "syngo_MR_E11",
  "SpacingBetweenSlices": 2,
  "StationName": "MRC35049",
  "TaskName": "wedges",
  "TotalReadoutTime": 0.0576811,
  "TxRefAmp": 296.328,
  "WipMemBlock": "03c24555-ad23-49a7-abd3-826178afe556||Sequence: R016 ve11c/master r/e634e98; Dec 19 2017 11:00:25 by eja",
  "dcmmeta_affine": [
    [-1.99884831905365, 0.027213092893362045, 0.0621674507856369, 104.39657592773438],
    [-0.010939497500658035, 1.6789835691452026, -1.0866897106170654, -47.00421142578125],
    [0.06697516143321991, 1.0864039659500122, 1.6778678894042969, -95.97465515136719],
    [0.0, 0.0, 0.0, 1.0]
],
  "dcmmeta_reorient_transform": [
    [0.0, -1.0, 0.0, 103.0],
    [1.0, 0.0, 0.0, 0.0],
    [0.0, 0.0, 1.0, 0.0],
    [0.0, 0.0, 0.0, 1.0]
],
  "dcmmeta_shape": [104, 104, 60, 202],
  "dcmmeta_slice_dim": 2,
  "dcmmeta_version": 0.6,
  "global": {
    "const": {
      "AcquisitionMatrix": [104, 0, 0, 104],
      "AngioFlag": "N",
      "BitsAllocated": 16,
      "BitsStored": 16,
      "BodyPartExamined": "BRAIN",
      "Columns": 832,
      "EchoNumbers": 1,
      "EchoTime": 37.0,
      "EchoTrainLength": 104,
      "FlipAngle": 52.0,
      "HighBit": 15,
      "ImageOrientationPatient": [0.99942416612844, 0.00546974854941, 0.03348757992577, 0.01360654667885, 0.83949177805581, -0.5432020033691],
      "ImagePositionPatient": [-844.6858836049, -741.06308580815, 386.9970578976],
      "ImageType": [
        "ORIGINAL",
        "PRIMARY",
        "M",
        "MB",
        "ND",
        "MOSAIC"
],
      "ImagedNucleus": "1H",
      "ImagingFrequency": 123.259187,
      "InPlanePhaseEncodingDirection": "COL",
      "MRAcquisitionType": "2D",
      "MagneticFieldStrength": 3.0,
      "Manufacturer": "SIEMENS",
      "ManufacturerModelName": "Prisma_fit",
      "Modality": "MR",
      "NumberOfAverages": 1.0,
      "NumberOfPhaseEncodingSteps": 104,
      "PercentPhaseFieldOfView": 100.0,
      "PercentSampling": 100.0,
      "PerformedProcedureStepStartTime": "113241.190000",
      "PhotometricInterpretation": "MONOCHROME2",
      "PixelBandwidth": 2290.0,
      "PixelRepresentation": 0,
      "PixelSpacing": [2.0, 2.0],
      "ProtocolName": "func_task-wedges",
      "RepetitionTime": 1490.0,
      "Rows": 832,
      "SAR": 0.0614484340988,
      "SamplesPerPixel": 1,
      "ScanOptions": "FS",
      "ScanningSequence": "EP",
      "SequenceName": "epfid2d1_104",
      "SequenceVariant": [
        "SK",
        "SS"
],
      "SeriesDescription": "func_task-wedges",
      "SeriesNumber": 10,
      "SeriesTime": "113756.783000",
      "SliceLocation": -51.731864587715,
      "SliceThickness": 2.0,
      "SmallestImagePixelValue": 0,
      "SoftwareVersions": "syngo MR E11",
      "SpacingBetweenSlices": 1.9999999912702,
      "SpecificCharacterSet": "ISO_IR 100",
      "StudyID": "1",
      "StudyTime": "113241.119000",
      "TransmitCoilName": "Body",
      "VariableFlipAngleFlag": "N",
      "WindowCenterWidthExplanation": "Algo1",
      "dBdt": 0.0},
    "slices": {}
  },
  "time": {
    "samples": {
      "AcquisitionNumber": [1, 2, 3, 4, 5, 6, 7, 8, 9, 10, 11, 12, 13, 14, 15, 16, 17, 18, 19, 20, 21, 22, 23, 24, 25, 26, 27, 28, 29, 30, 31, 32, 33, 34, 35, 36, 37, 38, 39, 40, 41, 42, 43, 44, 45, 46, 47, 48, 49, 50, 51, 52, 53, 54, 55, 56, 57, 58, 59, 60, 61, 62, 63, 64, 65, 66, 67, 68, 69, 70, 71, 72, 73, 74, 75, 76, 77, 78, 79, 80, 81, 82, 83, 84, 85, 86, 87, 88, 89, 90, 91, 92, 93, 94, 95, 96, 97, 98, 99, 100, 101, 102, 103, 104, 105, 106, 107, 108, 109, 110, 111, 112, 113, 114, 115, 116, 117, 118, 119, 120, 121, 122, 123, 124, 125, 126, 127, 128, 129, 130, 131, 132, 133, 134, 135, 136, 137, 138, 139, 140, 141, 142, 143, 144, 145, 146, 147, 148, 149, 150, 151, 152, 153, 154, 155, 156, 157, 158, 159, 160, 161, 162, 163, 164, 165, 166, 167, 168, 169, 170, 171, 172, 173, 174, 175, 176, 177, 178, 179, 180, 181, 182, 183, 184, 185, 186, 187, 188, 189, 190, 191, 192, 193, 194, 195, 196, 197, 198, 199, 200, 201, 202],
      "AcquisitionTime": ["113631.530000", "113633.020000", "113634.510000", "113636.000000", "113637.490000", "113638.980000", "113640.470000", "113641.960000", "113643.450000", "113644.940000", "113646.430000", "113647.920000", "113649.410000", "113650.900000", "113652.390000", "113653.880000", "113655.370000", "113656.860000", "113658.350000", "113659.840000", "113701.330000", "113702.820000", "113704.310000", "113705.800000", "113707.290000", "113708.780000", "113710.270000", "113711.760000", "113713.250000", "113714.740000", "113716.230000", "113717.720000", "113719.210000", "113720.700000", "113722.190000", "113723.680000", "113725.170000", "113726.660000", "113728.150000", "113729.640000", "113731.130000", "113732.620000", "113734.110000", "113735.600000", "113737.090000", "113738.580000", "113740.070000", "113741.560000", "113743.050000", "113744.540000", "113746.030000", "113747.520000", "113749.010000", "113750.500000", "113751.990000", "113753.480000", "113754.970000", "113756.460000", "113757.950000", "113759.440000", "113800.930000", "113802.420000", "113803.910000", "113805.400000", "113806.890000", "113808.380000", "113809.870000", "113811.360000", "113812.850000", "113814.340000", "113815.830000", "113817.320000", "113818.810000", "113820.300000", "113821.790000", "113823.280000", "113824.770000", "113826.260000", "113827.750000", "113829.240000", "113830.730000", "113832.220000", "113833.710000", "113835.200000", "113836.690000", "113838.180000", "113839.670000", "113841.160000", "113842.650000", "113844.140000", "113845.630000", "113847.120000", "113848.610000", "113850.100000", "113851.590000", "113853.080000", "113854.570000", "113856.060000", "113857.550000", "113859.040000", "113900.530000", "113902.020000", "113903.510000", "113905.000000", "113906.490000", "113907.980000", "113909.470000", "113910.960000", "113912.450000", "113913.940000", "113915.430000", "113916.920000", "113918.410000", "113919.900000", "113921.390000", "113922.880000", "113924.370000", "113925.860000", "113927.350000", "113928.840000", "113930.330000", "113931.820000", "113933.310000", "113934.800000", "113936.290000", "113937.780000", "113939.270000", "113940.760000", "113942.250000", "113943.740000", "113945.230000", "113946.720000", "113948.210000", "113949.700000", "113951.190000", "113952.680000", "113954.170000", "113955.660000", "113957.150000", "113958.640000", "114000.130000", "114001.620000", "114003.110000", "114004.600000", "114006.090000", "114007.580000", "114009.070000", "114010.560000", "114012.050000", "114013.540000", "114015.030000", "114016.520000", "114018.010000", "114019.500000", "114020.990000", "114022.480000", "114023.970000", "114025.460000", "114026.950000", "114028.440000", "114029.930000", "114031.420000", "114032.910000", "114034.400000", "114035.890000", "114037.380000", "114038.870000", "114040.360000", "114041.850000", "114043.340000", "114044.830000", "114046.320000", "114047.810000", "114049.300000", "114050.790000", "114052.280000", "114053.770000", "114055.260000", "114056.750000", "114058.240000", "114059.730000", "114101.220000", "114102.710000", "114104.200000", "114105.690000", "114107.180000", "114108.670000", "114110.160000", "114111.650000", "114113.140000", "114114.630000", "114116.120000", "114117.610000", "114119.100000", "114120.590000", "114122.080000", "114123.570000", "114125.060000", "114126.550000", "114128.040000", "114129.530000", "114131.020000"],
      "ContentTime": ["113756.786000", "113756.790000", "113756.793000", "113756.804000", "113756.807000", "113756.810000", "113756.814000", "113756.817000", "113756.821000", "113756.824000", "113756.828000", "113756.831000", "113756.835000", "113756.839000", "113756.842000", "113756.846000", "113756.849000", "113756.853000", "113756.856000", "113756.860000", "113756.863000", "113756.866000", "113756.870000", "113756.873000", "113756.877000", "113756.880000", "113756.883000", "113756.887000", "113756.890000", "113756.894000", "113816.757000", "113816.761000", "113816.770000", "113816.773000", "113816.777000", "113816.780000", "113816.783000", "113816.787000", "113816.790000", "113816.794000", "113816.797000", "113816.800000", "113816.804000", "113816.807000", "113816.811000", "113816.814000", "113816.817000", "113816.821000", "113816.824000", "113816.827000", "113836.756000", "113836.760000", "113836.763000", "113836.767000", "113836.770000", "113836.774000", "113836.777000", "113836.780000", "113836.784000", "113836.787000", "113836.790000", "113836.794000", "113836.797000", "113836.801000", "113836.804000", "113836.807000", "113836.811000", "113836.814000", "113836.817000", "113836.821000", "113856.757000", "113856.761000", "113856.764000", "113856.768000", "113856.771000", "113856.776000", "113856.779000", "113856.783000", "113856.786000", "113856.789000", "113856.793000", "113856.796000", "113856.800000", "113856.803000", "113856.806000", "113856.810000", "113856.813000", "113856.817000", "113856.820000", "113856.823000", "113916.757000", "113916.761000", "113916.764000", "113916.768000", "113916.771000", "113916.775000", "113916.778000", "113916.782000", "113916.785000", "113916.796000", "113916.800000", "113916.803000", "113916.806000", "113916.810000", "113916.813000", "113916.817000", "113916.820000", "113916.823000", "113916.827000", "113916.830000", "113956.757000", "113956.768000", "113956.772000", "113956.775000", "113956.779000", "113956.782000", "113956.785000", "113956.789000", "113956.792000", "113956.796000", "113956.799000", "113956.803000", "113956.806000", "113956.809000", "113956.813000", "113956.817000", "113956.820000", "113956.824000", "113956.827000", "113956.830000", "113956.834000", "113956.837000", "113956.841000", "113956.844000", "113956.847000", "113956.851000", "113956.854000", "114036.757000", "114036.761000", "114036.764000", "114036.768000", "114036.771000", "114036.774000", "114036.778000", "114036.781000", "114036.785000", "114036.788000", "114036.791000", "114036.795000", "114036.798000", "114036.801000", "114036.805000", "114036.808000", "114036.812000", "114036.815000", "114036.818000", "114036.822000", "114036.825000", "114036.828000", "114036.832000", "114036.835000", "114036.838000", "114036.851000", "114036.854000", "114116.757000", "114116.761000", "114116.765000", "114116.768000", "114116.771000", "114116.775000", "114116.778000", "114116.782000", "114116.785000", "114116.788000", "114116.792000", "114116.795000", "114116.799000", "114116.802000", "114116.805000", "114116.809000", "114116.812000", "114116.815000", "114116.819000", "114116.822000", "114116.826000", "114116.829000", "114116.834000", "114116.837000", "114116.841000", "114116.844000", "114133.429000", "114133.433000", "114133.437000", "114133.440000", "114133.443000", "114133.447000", "114133.450000", "114133.454000", "114133.457000", "114133.461000", "114133.465000", "114133.468000"],
      "InstanceCreationTime": ["113756.786000", "113756.790000", "113756.793000", "113756.804000", "113756.807000", "113756.810000", "113756.814000", "113756.817000", "113756.821000", "113756.824000", "113756.828000", "113756.831000", "113756.835000", "113756.839000", "113756.842000", "113756.846000", "113756.849000", "113756.853000", "113756.856000", "113756.860000", "113756.863000", "113756.866000", "113756.870000", "113756.873000", "113756.877000", "113756.880000", "113756.883000", "113756.887000", "113756.890000", "113756.894000", "113816.757000", "113816.761000", "113816.770000", "113816.773000", "113816.777000", "113816.780000", "113816.783000", "113816.787000", "113816.790000", "113816.794000", "113816.797000", "113816.800000", "113816.804000", "113816.807000", "113816.811000", "113816.814000", "113816.817000", "113816.821000", "113816.824000", "113816.827000", "113836.756000", "113836.760000", "113836.763000", "113836.767000", "113836.770000", "113836.774000", "113836.777000", "113836.780000", "113836.784000", "113836.787000", "113836.790000", "113836.794000", "113836.797000", "113836.801000", "113836.804000", "113836.807000", "113836.811000", "113836.814000", "113836.817000", "113836.821000", "113856.757000", "113856.761000", "113856.764000", "113856.768000", "113856.771000", "113856.776000", "113856.779000", "113856.783000", "113856.786000", "113856.789000", "113856.793000", "113856.796000", "113856.800000", "113856.803000", "113856.806000", "113856.810000", "113856.813000", "113856.817000", "113856.820000", "113856.823000", "113916.757000", "113916.761000", "113916.764000", "113916.768000", "113916.771000", "113916.775000", "113916.778000", "113916.782000", "113916.785000", "113916.796000", "113916.800000", "113916.803000", "113916.806000", "113916.810000", "113916.813000", "113916.817000", "113916.820000", "113916.823000", "113916.827000", "113916.830000", "113956.757000", "113956.768000", "113956.772000", "113956.775000", "113956.779000", "113956.782000", "113956.785000", "113956.789000", "113956.792000", "113956.796000", "113956.799000", "113956.803000", "113956.806000", "113956.809000", "113956.813000", "113956.817000", "113956.820000", "113956.824000", "113956.827000", "113956.830000", "113956.834000", "113956.837000", "113956.841000", "113956.844000", "113956.847000", "113956.851000", "113956.854000", "114036.757000", "114036.761000", "114036.764000", "114036.768000", "114036.771000", "114036.774000", "114036.778000", "114036.781000", "114036.785000", "114036.788000", "114036.791000", "114036.795000", "114036.798000", "114036.801000", "114036.805000", "114036.808000", "114036.812000", "114036.815000", "114036.818000", "114036.822000", "114036.825000", "114036.828000", "114036.832000", "114036.835000", "114036.838000", "114036.851000", "114036.854000", "114116.757000", "114116.761000", "114116.765000", "114116.768000", "114116.771000", "114116.775000", "114116.778000", "114116.782000", "114116.785000", "114116.788000", "114116.792000", "114116.795000", "114116.799000", "114116.802000", "114116.805000", "114116.809000", "114116.812000", "114116.815000", "114116.819000", "114116.822000", "114116.826000", "114116.829000", "114116.834000", "114116.837000", "114116.841000", "114116.844000", "114133.429000", "114133.433000", "114133.437000", "114133.440000", "114133.443000", "114133.447000", "114133.450000", "114133.454000", "114133.457000", "114133.461000", "114133.465000", "114133.468000"],
      "InstanceNumber": [1, 2, 3, 4, 5, 6, 7, 8, 9, 10, 11, 12, 13, 14, 15, 16, 17, 18, 19, 20, 21, 22, 23, 24, 25, 26, 27, 28, 29, 30, 31, 32, 33, 34, 35, 36, 37, 38, 39, 40, 41, 42, 43, 44, 45, 46, 47, 48, 49, 50, 51, 52, 53, 54, 55, 56, 57, 58, 59, 60, 61, 62, 63, 64, 65, 66, 67, 68, 69, 70, 71, 72, 73, 74, 75, 76, 77, 78, 79, 80, 81, 82, 83, 84, 85, 86, 87, 88, 89, 90, 91, 92, 93, 94, 95, 96, 97, 98, 99, 100, 101, 102, 103, 104, 105, 106, 107, 108, 109, 110, 111, 112, 113, 114, 115, 116, 117, 118, 119, 120, 121, 122, 123, 124, 125, 126, 127, 128, 129, 130, 131, 132, 133, 134, 135, 136, 137, 138, 139, 140, 141, 142, 143, 144, 145, 146, 147, 148, 149, 150, 151, 152, 153, 154, 155, 156, 157, 158, 159, 160, 161, 162, 163, 164, 165, 166, 167, 168, 169, 170, 171, 172, 173, 174, 175, 176, 177, 178, 179, 180, 181, 182, 183, 184, 185, 186, 187, 188, 189, 190, 191, 192, 193, 194, 195, 196, 197, 198, 199, 200, 201, 202],
      "LargestImagePixelValue": [51588, 49529, 49092, 49101, 48770, 49222, 49345, 50168, 49589, 49778, 49138, 49681, 49108, 49322, 49060, 48817, 48733, 48626, 49281, 48800, 48442, 48641, 48972, 49282, 49281, 49360, 49109, 49068, 48641, 48018, 48750, 49107, 48551, 48960, 49103, 49383, 49166, 48727, 49013, 49175, 49355, 48823, 48605, 48909, 48878, 49132, 48952, 49162, 49279, 49251, 48976, 48885, 48893, 48962, 49158, 49031, 49157, 49478, 49554, 49216, 49498, 48985, 49035, 49222, 49268, 48429, 49135, 47927, 48285, 48769, 48939, 48293, 48047, 48640, 48785, 48152, 48720, 48929, 48873, 48972, 49457, 48989, 49229, 48729, 47393, 48520, 48509, 48607, 49264, 49215, 49381, 49099, 48619, 49080, 49873, 48896, 48999, 49379, 48968, 48577, 49036, 48927, 48990, 49196, 48936, 48870, 48816, 49096, 48165, 49001, 48790, 48841, 49132, 48809, 49410, 48665, 49027, 48908, 49419, 49030, 49170, 48829, 49366, 48653, 49123, 47804, 48908, 49022, 49003, 48856, 48430, 48859, 48317, 48925, 48279, 49281, 48610, 48242, 48334, 49269, 48699, 48785, 48572, 48579, 48242, 48916, 48601, 48353, 48218, 48904, 49498, 49024, 48594, 48811, 48679, 48869, 48417, 48047, 48433, 48527, 48685, 49199, 48680, 48963, 48687, 48740, 48907, 48857, 48858, 48731, 47648, 48421, 48304, 48712, 48754, 48693, 48389, 48263, 48620, 47444, 48047, 48243, 49140, 49051, 48896, 48906, 48656, 48606, 48877, 46935, 47162, 47886, 49030, 48121, 47902, 48400, 48151, 48193, 47243, 45948, 48803, 49074],
      "WindowCenter": [11324.0, 11270.0, 11223.0, 11198.0, 11205.0, 11246.0, 11266.0, 11269.0, 11243.0, 11249.0, 11240.0, 11252.0, 11242.0, 11222.0, 11218.0, 11246.0, 11269.0, 11296.0, 11320.0, 11318.0, 11306.0, 11293.0, 11274.0, 11267.0, 11257.0, 11247.0, 11240.0, 11265.0, 11291.0, 11274.0, 11260.0, 11271.0, 11295.0, 11314.0, 11307.0, 11288.0, 11267.0, 11237.0, 11214.0, 11217.0, 11252.0, 11267.0, 11263.0, 11254.0, 11248.0, 11262.0, 11266.0, 11263.0, 11258.0, 11261.0, 11273.0, 11291.0, 11302.0, 11277.0, 11252.0, 11242.0, 11255.0, 11259.0, 11252.0, 11240.0, 11237.0, 11237.0, 11241.0, 11247.0, 11251.0, 11238.0, 11289.0, 11271.0, 11248.0, 11242.0, 11268.0, 11274.0, 11258.0, 11243.0, 11218.0, 11203.0, 11204.0, 11202.0, 11192.0, 11171.0, 11191.0, 11195.0, 11212.0, 11249.0, 11273.0, 11300.0, 11296.0, 11256.0, 11232.0, 11233.0, 11246.0, 11250.0, 11237.0, 11231.0, 11246.0, 11218.0, 11185.0, 11189.0, 11221.0, 11244.0, 11259.0, 11260.0, 11248.0, 11251.0, 11239.0, 11243.0, 11241.0, 11267.0, 11257.0, 11235.0, 11236.0, 11257.0, 11275.0, 11265.0, 11264.0, 11221.0, 11208.0, 11223.0, 11222.0, 11222.0, 11205.0, 11200.0, 11215.0, 11238.0, 11282.0, 11273.0, 11247.0, 11217.0, 11213.0, 11209.0, 11211.0, 11204.0, 11195.0, 11193.0, 11188.0, 11199.0, 11191.0, 11201.0, 11227.0, 11229.0, 11211.0, 11230.0, 11257.0, 11264.0, 11246.0, 11228.0, 11205.0, 11199.0, 11202.0, 11207.0, 11223.0, 11214.0, 11213.0, 11219.0, 11222.0, 11245.0, 11263.0, 11243.0, 11203.0, 11179.0, 11177.0, 11185.0, 11194.0, 11185.0, 11163.0, 11161.0, 11169.0, 11183.0, 11191.0, 11195.0, 11197.0, 11178.0, 11130.0, 11125.0, 11161.0, 11204.0, 11226.0, 11233.0, 11239.0, 11194.0, 11156.0, 11136.0, 11162.0, 11178.0, 11176.0, 11163.0, 11145.0, 11150.0, 11177.0, 11146.0, 11107.0, 11110.0, 11156.0, 11195.0, 11198.0, 11190.0, 11179.0, 11197.0, 11176.0, 11122.0, 11127.0, 11158.0],
      "WindowWidth": [24496.0, 24337.0, 24209.0, 24134.0, 24144.0, 24233.0, 24279.0, 24281.0, 24222.0, 24230.0, 24214.0, 24242.0, 24224.0, 24179.0, 24169.0, 24234.0, 24289.0, 24351.0, 24408.0, 24404.0, 24374.0, 24342.0, 24298.0, 24281.0, 24257.0, 24236.0, 24223.0, 24282.0, 24344.0, 24312.0, 24274.0, 24293.0, 24350.0, 24394.0, 24378.0, 24330.0, 24283.0, 24213.0, 24157.0, 24163.0, 24244.0, 24281.0, 24270.0, 24246.0, 24232.0, 24262.0, 24275.0, 24273.0, 24262.0, 24267.0, 24297.0, 24338.0, 24366.0, 24306.0, 24241.0, 24218.0, 24258.0, 24259.0, 24240.0, 24210.0, 24203.0, 24217.0, 24216.0, 24230.0, 24242.0, 24219.0, 24334.0, 24298.0, 24242.0, 24226.0, 24282.0, 24305.0, 24259.0, 24215.0, 24157.0, 24123.0, 24125.0, 24122.0, 24106.0, 24052.0, 24096.0, 24109.0, 24146.0, 24233.0, 24297.0, 24357.0, 24349.0, 24257.0, 24198.0, 24195.0, 24226.0, 24238.0, 24209.0, 24189.0, 24223.0, 24163.0, 24084.0, 24091.0, 24169.0, 24225.0, 24258.0, 24257.0, 24230.0, 24235.0, 24211.0, 24219.0, 24217.0, 24279.0, 24263.0, 24209.0, 24209.0, 24255.0, 24292.0, 24267.0, 24268.0, 24165.0, 24127.0, 24167.0, 24162.0, 24165.0, 24127.0, 24114.0, 24148.0, 24206.0, 24308.0, 24298.0, 24231.0, 24161.0, 24148.0, 24143.0, 24146.0, 24131.0, 24107.0, 24101.0, 24094.0, 24117.0, 24100.0, 24126.0, 24186.0, 24188.0, 24149.0, 24191.0, 24253.0, 24270.0, 24227.0, 24179.0, 24123.0, 24119.0, 24123.0, 24134.0, 24167.0, 24153.0, 24148.0, 24161.0, 24167.0, 24221.0, 24267.0, 24224.0, 24128.0, 24067.0, 24064.0, 24080.0, 24102.0, 24083.0, 24030.0, 24023.0, 24040.0, 24073.0, 24095.0, 24107.0, 24119.0, 24079.0, 23962.0, 23948.0, 24030.0, 24129.0, 24183.0, 24197.0, 24207.0, 24106.0, 24014.0, 23968.0, 24024.0, 24066.0, 24060.0, 24034.0, 23986.0, 23996.0, 24059.0, 24001.0, 23911.0, 23912.0, 24016.0, 24110.0, 24119.0, 24096.0, 24068.0, 24114.0, 24070.0, 23953.0, 23951.0, 24022.0]
    },
    "slices": {}
  }
}