{
  "AcquisitionMatrixPE": 104,
  "AcquisitionNumber": 1,
  "AcquisitionTime": "11:42:35.757500",
  "BandwidthPerPixelPhaseEncode": 17.17,
  "BaseResolution": 104,
  "BodyPartExamined": "BRAIN",
  "CoilString": "HC1-7;NC1_2",
  "ConsistencyInfo": "N4_VE11C_LATEST_20160120",
  "ConversionSoftware": "dcm2niix",
  "ConversionSoftwareVersion": "v1.0.20190902",
  "DerivedVendorReportedEchoSpacing": 0.000560011,
  "DeviceSerialNumber": "167006",
  "DwellTime": 2.1e-06,
  "EchoTime": 0.037,
  "EchoTrainLength": 104,
  "EffectiveEchoSpacing": 0.000560011,
  "FlipAngle": 52,
  "ImageComments": "Unaliased_MB4_PE3_LB",
  "ImageOrientationPatientDICOM": [0.999687, -0.000310721, -0.0250054, -0.0129121, 0.849909, -0.526771],
  "ImageType": [
    "ORIGINAL",
    "PRIMARY",
    "M",
    "MB",
    "ND",
    "MOSAIC"
],
  "ImagingFrequency": 123.259,
  "InPlanePhaseEncodingDirectionDICOM": "COL",
  "InstitutionAddress": "Chemin_Queen-Mary_4565_Montreal_District_CA_H3W_1W5",
  "InstitutionName": "IUGM",
  "InstitutionalDepartmentName": "Department",
  "MRAcquisitionType": "2D",
  "MagneticFieldStrength": 3,
  "Manufacturer": "Siemens",
  "ManufacturersModelName": "Prisma_fit",
  "Modality": "MR",
  "MultibandAccelerationFactor": 4,
  "PartialFourier": 1,
  "PatientPosition": "HFS",
  "PercentPhaseFOV": 100,
  "PhaseEncodingDirection": "j",
  "PhaseEncodingSteps": 104,
  "PhaseResolution": 1,
  "PixelBandwidth": 2290,
  "ProcedureStepDescription": "localizers_retinotopy",
  "ProtocolName": "func_task-bars",
  "PulseSequenceDetails": "%CustomerSeq%_cmrr_mbep2d_bold",
  "ReceiveCoilActiveElements": "HC1-7;NC1,2",
  "ReceiveCoilName": "HeadNeck_64",
  "ReconMatrixPE": 104,
  "RepetitionTime": 1.49,
  "SAR": 0.0667779,
  "ScanOptions": "FS",
  "ScanningSequence": "EP",
  "SequenceName": "epfid2d1_104",
  "SequenceVariant": "SK_SS",
  "SeriesDescription": "func_task-bars",
  "SeriesNumber": 16,
  "ShimSetting": [609, -7173, -8888, 189, 59, -215, 31, -50],
  "SliceThickness": 2,
  "SliceTiming": [0, 0.7825, 0.0975, 0.88, 0.195, 0.98, 0.2925, 1.0775, 0.39, 1.175, 0.49, 1.2725, 0.5875, 1.37, 0.685, 0, 0.7825, 0.0975, 0.88, 0.195, 0.98, 0.2925, 1.0775, 0.39, 1.175, 0.49, 1.2725, 0.5875, 1.37, 0.685, 0, 0.7825, 0.0975, 0.88, 0.195, 0.98, 0.2925, 1.0775, 0.39, 1.175, 0.49, 1.2725, 0.5875, 1.37, 0.685, 0, 0.7825, 0.0975, 0.88, 0.195, 0.98, 0.2925, 1.0775, 0.39, 1.175, 0.49, 1.2725, 0.5875, 1.37, 0.685],
  "SoftwareVersions": "syngo_MR_E11",
  "SpacingBetweenSlices": 2,
  "StationName": "MRC35049",
  "TaskName": "bars",
  "TotalReadoutTime": 0.0576811,
  "TxRefAmp": 313.449,
  "WipMemBlock": "39a6b205-81f0-4d7f-abe8-5c4e4cd1b8ce||Sequence: R016 ve11c/master r/e634e98; Dec 19 2017 11:00:25 by eja",
  "dcmmeta_affine": [
    [-1.999374508857727, -0.025824161246418953, -0.04283200204372406, 109.86860656738281],
    [0.0006214420427568257, 1.6998181343078613, -1.0538585186004639, -50.12361526489258],
    [-0.050010815262794495, 1.0535422563552856, 1.699278473854065, -105.59742736816406],
    [0.0, 0.0, 0.0, 1.0]
],
  "dcmmeta_reorient_transform": [
    [0.0, -1.0, 0.0, 103.0],
    [1.0, 0.0, 0.0, 0.0],
    [0.0, 0.0, 1.0, 0.0],
    [0.0, 0.0, 0.0, 1.0]
],
  "dcmmeta_shape": [104, 104, 60, 202],
  "dcmmeta_slice_dim": 2,
  "dcmmeta_version": 0.6,
  "global": {
    "const": {
      "AcquisitionMatrix": [104, 0, 0, 104],
      "AngioFlag": "N",
      "BitsAllocated": 16,
      "BitsStored": 16,
      "BodyPartExamined": "BRAIN",
      "Columns": 832,
      "EchoNumbers": 1,
      "EchoTime": 37.0,
      "EchoTrainLength": 104,
      "FlipAngle": 52.0,
      "HighBit": 15,
      "ImageOrientationPatient": [0.99968726761791, -0.000310721019, -0.0250054077169, -0.0129120807333, 0.8499090752153, -0.5267711476892],
      "ImagePositionPatient": [-825.58105287336, -743.46525696085, 404.61075935061],
      "ImageType": [
        "ORIGINAL",
        "PRIMARY",
        "M",
        "MB",
        "ND",
        "MOSAIC"
],
      "ImagedNucleus": "1H",
      "ImagingFrequency": 123.258949,
      "InPlanePhaseEncodingDirection": "COL",
      "MRAcquisitionType": "2D",
      "MagneticFieldStrength": 3.0,
      "Manufacturer": "SIEMENS",
      "ManufacturerModelName": "Prisma_fit",
      "Modality": "MR",
      "NumberOfAverages": 1.0,
      "NumberOfPhaseEncodingSteps": 104,
      "PercentPhaseFieldOfView": 100.0,
      "PercentSampling": 100.0,
      "PerformedProcedureStepStartTime": "112504.732000",
      "PhotometricInterpretation": "MONOCHROME2",
      "PixelBandwidth": 2290.0,
      "PixelRepresentation": 0,
      "PixelSpacing": [2.0, 2.0],
      "ProtocolName": "func_task-bars",
      "RepetitionTime": 1490.0,
      "Rows": 832,
      "SAR": 0.06677790224178,
      "SamplesPerPixel": 1,
      "ScanOptions": "FS",
      "ScanningSequence": "EP",
      "SequenceName": "epfid2d1_104",
      "SequenceVariant": [
        "SK",
        "SS"
],
      "SeriesDescription": "func_task-bars",
      "SeriesNumber": 16,
      "SeriesTime": "114406.487000",
      "SliceLocation": -65.661068895087,
      "SliceThickness": 2.0,
      "SmallestImagePixelValue": 0,
      "SoftwareVersions": "syngo MR E11",
      "SpacingBetweenSlices": 1.9999999697386,
      "SpecificCharacterSet": "ISO_IR 100",
      "StudyID": "1",
      "StudyTime": "112504.624000",
      "TransmitCoilName": "Body",
      "VariableFlipAngleFlag": "N",
      "WindowCenterWidthExplanation": "Algo1",
      "dBdt": 0.0},
    "slices": {}
  },
  "time": {
    "samples": {
      "AcquisitionNumber": [1, 2, 3, 4, 5, 6, 7, 8, 9, 10, 11, 12, 13, 14, 15, 16, 17, 18, 19, 20, 21, 22, 23, 24, 25, 26, 27, 28, 29, 30, 31, 32, 33, 34, 35, 36, 37, 38, 39, 40, 41, 42, 43, 44, 45, 46, 47, 48, 49, 50, 51, 52, 53, 54, 55, 56, 57, 58, 59, 60, 61, 62, 63, 64, 65, 66, 67, 68, 69, 70, 71, 72, 73, 74, 75, 76, 77, 78, 79, 80, 81, 82, 83, 84, 85, 86, 87, 88, 89, 90, 91, 92, 93, 94, 95, 96, 97, 98, 99, 100, 101, 102, 103, 104, 105, 106, 107, 108, 109, 110, 111, 112, 113, 114, 115, 116, 117, 118, 119, 120, 121, 122, 123, 124, 125, 126, 127, 128, 129, 130, 131, 132, 133, 134, 135, 136, 137, 138, 139, 140, 141, 142, 143, 144, 145, 146, 147, 148, 149, 150, 151, 152, 153, 154, 155, 156, 157, 158, 159, 160, 161, 162, 163, 164, 165, 166, 167, 168, 169, 170, 171, 172, 173, 174, 175, 176, 177, 178, 179, 180, 181, 182, 183, 184, 185, 186, 187, 188, 189, 190, 191, 192, 193, 194, 195, 196, 197, 198, 199, 200, 201, 202],
      "AcquisitionTime": ["114235.757500", "114237.247500", "114238.737500", "114240.227500", "114241.717500", "114243.207500", "114244.697500", "114246.187500", "114247.677500", "114249.167500", "114250.657500", "114252.147500", "114253.637500", "114255.127500", "114256.617500", "114258.107500", "114259.597500", "114301.087500", "114302.577500", "114304.067500", "114305.557500", "114307.047500", "114308.537500", "114310.027500", "114311.517500", "114313.007500", "114314.497500", "114315.987500", "114317.477500", "114318.967500", "114320.457500", "114321.947500", "114323.437500", "114324.927500", "114326.417500", "114327.907500", "114329.397500", "114330.887500", "114332.377500", "114333.867500", "114335.357500", "114336.847500", "114338.337500", "114339.827500", "114341.317500", "114342.807500", "114344.297500", "114345.787500", "114347.277500", "114348.767500", "114350.257500", "114351.747500", "114353.237500", "114354.727500", "114356.217500", "114357.707500", "114359.197500", "114400.687500", "114402.177500", "114403.667500", "114405.157500", "114406.647500", "114408.137500", "114409.627500", "114411.117500", "114412.607500", "114414.097500", "114415.587500", "114417.077500", "114418.567500", "114420.057500", "114421.547500", "114423.037500", "114424.527500", "114426.017500", "114427.507500", "114428.997500", "114430.487500", "114431.977500", "114433.467500", "114434.957500", "114436.447500", "114437.937500", "114439.427500", "114440.917500", "114442.407500", "114443.897500", "114445.387500", "114446.877500", "114448.367500", "114449.857500", "114451.347500", "114452.837500", "114454.327500", "114455.817500", "114457.307500", "114458.797500", "114500.287500", "114501.777500", "114503.267500", "114504.757500", "114506.247500", "114507.737500", "114509.227500", "114510.717500", "114512.207500", "114513.697500", "114515.187500", "114516.677500", "114518.167500", "114519.657500", "114521.147500", "114522.637500", "114524.127500", "114525.617500", "114527.107500", "114528.597500", "114530.087500", "114531.577500", "114533.067500", "114534.557500", "114536.047500", "114537.537500", "114539.027500", "114540.517500", "114542.007500", "114543.497500", "114544.987500", "114546.477500", "114547.967500", "114549.457500", "114550.947500", "114552.437500", "114553.927500", "114555.417500", "114556.907500", "114558.397500", "114559.887500", "114601.377500", "114602.867500", "114604.357500", "114605.847500", "114607.337500", "114608.827500", "114610.317500", "114611.807500", "114613.297500", "114614.787500", "114616.277500", "114617.767500", "114619.257500", "114620.747500", "114622.237500", "114623.727500", "114625.217500", "114626.707500", "114628.197500", "114629.687500", "114631.177500", "114632.667500", "114634.157500", "114635.647500", "114637.137500", "114638.627500", "114640.117500", "114641.607500", "114643.097500", "114644.587500", "114646.077500", "114647.567500", "114649.057500", "114650.547500", "114652.037500", "114653.527500", "114655.017500", "114656.507500", "114657.997500", "114659.487500", "114700.977500", "114702.467500", "114703.957500", "114705.447500", "114706.937500", "114708.427500", "114709.917500", "114711.407500", "114712.897500", "114714.387500", "114715.877500", "114717.367500", "114718.857500", "114720.347500", "114721.837500", "114723.327500", "114724.817500", "114726.307500", "114727.797500", "114729.287500", "114730.777500", "114732.267500", "114733.757500", "114735.247500"],
      "ContentTime": ["114406.490000", "114406.494000", "114406.497000", "114406.500000", "114406.504000", "114406.507000", "114406.510000", "114406.514000", "114406.517000", "114406.520000", "114406.523000", "114406.526000", "114406.530000", "114406.533000", "114406.536000", "114406.539000", "114406.543000", "114406.552000", "114406.555000", "114406.558000", "114406.562000", "114406.565000", "114406.568000", "114406.571000", "114406.575000", "114406.578000", "114406.581000", "114406.584000", "114406.588000", "114406.591000", "114406.594000", "114406.598000", "114406.601000", "114406.604000", "114406.607000", "114406.611000", "114406.614000", "114426.455000", "114426.459000", "114426.462000", "114426.466000", "114426.469000", "114426.472000", "114426.475000", "114426.479000", "114426.482000", "114426.485000", "114426.488000", "114426.492000", "114426.495000", "114426.498000", "114426.502000", "114426.505000", "114426.508000", "114426.511000", "114426.515000", "114426.518000", "114446.455000", "114446.459000", "114446.462000", "114446.471000", "114446.474000", "114446.477000", "114446.480000", "114446.484000", "114446.487000", "114446.490000", "114446.494000", "114446.497000", "114446.500000", "114446.504000", "114446.507000", "114446.511000", "114446.514000", "114446.517000", "114446.520000", "114446.524000", "114446.527000", "114506.455000", "114506.459000", "114506.462000", "114506.465000", "114506.469000", "114506.472000", "114506.490000", "114506.494000", "114506.497000", "114506.500000", "114506.503000", "114506.507000", "114506.510000", "114506.513000", "114506.517000", "114506.520000", "114506.523000", "114506.526000", "114506.530000", "114506.533000", "114546.454000", "114546.458000", "114546.461000", "114546.464000", "114546.468000", "114546.471000", "114546.474000", "114546.478000", "114546.481000", "114546.484000", "114546.487000", "114546.491000", "114546.494000", "114546.497000", "114546.501000", "114546.504000", "114546.507000", "114546.510000", "114546.514000", "114546.517000", "114546.520000", "114546.523000", "114546.527000", "114546.530000", "114546.533000", "114546.536000", "114546.540000", "114546.543000", "114546.546000", "114626.454000", "114626.458000", "114626.461000", "114626.464000", "114626.468000", "114626.471000", "114626.474000", "114626.477000", "114626.481000", "114626.484000", "114626.487000", "114626.491000", "114626.494000", "114626.497000", "114626.501000", "114626.504000", "114626.507000", "114626.510000", "114626.514000", "114626.517000", "114626.520000", "114626.524000", "114626.527000", "114626.530000", "114626.533000", "114626.537000", "114626.540000", "114706.455000", "114706.459000", "114706.462000", "114706.465000", "114706.469000", "114706.472000", "114706.475000", "114706.479000", "114706.482000", "114706.485000", "114706.488000", "114706.492000", "114706.495000", "114706.498000", "114706.502000", "114706.505000", "114706.508000", "114706.512000", "114706.515000", "114706.518000", "114706.521000", "114706.525000", "114706.528000", "114706.531000", "114706.534000", "114706.538000", "114706.541000", "114737.737000", "114737.740000", "114737.744000", "114737.754000", "114737.757000", "114737.760000", "114737.764000", "114737.767000", "114737.771000", "114737.774000", "114737.777000", "114737.781000", "114737.784000", "114737.787000", "114737.790000", "114737.794000", "114737.797000", "114737.801000", "114737.804000", "114737.807000", "114737.811000"],
      "InstanceCreationTime": ["114406.490000", "114406.494000", "114406.497000", "114406.500000", "114406.504000", "114406.507000", "114406.510000", "114406.514000", "114406.517000", "114406.520000", "114406.523000", "114406.526000", "114406.530000", "114406.533000", "114406.536000", "114406.539000", "114406.543000", "114406.552000", "114406.555000", "114406.558000", "114406.562000", "114406.565000", "114406.568000", "114406.571000", "114406.575000", "114406.578000", "114406.581000", "114406.584000", "114406.588000", "114406.591000", "114406.594000", "114406.598000", "114406.601000", "114406.604000", "114406.607000", "114406.611000", "114406.614000", "114426.455000", "114426.459000", "114426.462000", "114426.466000", "114426.469000", "114426.472000", "114426.475000", "114426.479000", "114426.482000", "114426.485000", "114426.488000", "114426.492000", "114426.495000", "114426.498000", "114426.502000", "114426.505000", "114426.508000", "114426.511000", "114426.515000", "114426.518000", "114446.455000", "114446.459000", "114446.462000", "114446.471000", "114446.474000", "114446.477000", "114446.480000", "114446.484000", "114446.487000", "114446.490000", "114446.494000", "114446.497000", "114446.500000", "114446.504000", "114446.507000", "114446.511000", "114446.514000", "114446.517000", "114446.520000", "114446.524000", "114446.527000", "114506.455000", "114506.459000", "114506.462000", "114506.465000", "114506.469000", "114506.472000", "114506.490000", "114506.494000", "114506.497000", "114506.500000", "114506.503000", "114506.507000", "114506.510000", "114506.513000", "114506.517000", "114506.520000", "114506.523000", "114506.526000", "114506.530000", "114506.533000", "114546.454000", "114546.458000", "114546.461000", "114546.464000", "114546.468000", "114546.471000", "114546.474000", "114546.478000", "114546.481000", "114546.484000", "114546.487000", "114546.491000", "114546.494000", "114546.497000", "114546.501000", "114546.504000", "114546.507000", "114546.510000", "114546.514000", "114546.517000", "114546.520000", "114546.523000", "114546.527000", "114546.530000", "114546.533000", "114546.536000", "114546.540000", "114546.543000", "114546.546000", "114626.454000", "114626.458000", "114626.461000", "114626.464000", "114626.468000", "114626.471000", "114626.474000", "114626.477000", "114626.481000", "114626.484000", "114626.487000", "114626.491000", "114626.494000", "114626.497000", "114626.501000", "114626.504000", "114626.507000", "114626.510000", "114626.514000", "114626.517000", "114626.520000", "114626.524000", "114626.527000", "114626.530000", "114626.533000", "114626.537000", "114626.540000", "114706.455000", "114706.459000", "114706.462000", "114706.465000", "114706.469000", "114706.472000", "114706.475000", "114706.479000", "114706.482000", "114706.485000", "114706.488000", "114706.492000", "114706.495000", "114706.498000", "114706.502000", "114706.505000", "114706.508000", "114706.512000", "114706.515000", "114706.518000", "114706.521000", "114706.525000", "114706.528000", "114706.531000", "114706.534000", "114706.538000", "114706.541000", "114737.737000", "114737.740000", "114737.744000", "114737.754000", "114737.757000", "114737.760000", "114737.764000", "114737.767000", "114737.771000", "114737.774000", "114737.777000", "114737.781000", "114737.784000", "114737.787000", "114737.790000", "114737.794000", "114737.797000", "114737.801000", "114737.804000", "114737.807000", "114737.811000"],
      "InstanceNumber": [1, 2, 3, 4, 5, 6, 7, 8, 9, 10, 11, 12, 13, 14, 15, 16, 17, 18, 19, 20, 21, 22, 23, 24, 25, 26, 27, 28, 29, 30, 31, 32, 33, 34, 35, 36, 37, 38, 39, 40, 41, 42, 43, 44, 45, 46, 47, 48, 49, 50, 51, 52, 53, 54, 55, 56, 57, 58, 59, 60, 61, 62, 63, 64, 65, 66, 67, 68, 69, 70, 71, 72, 73, 74, 75, 76, 77, 78, 79, 80, 81, 82, 83, 84, 85, 86, 87, 88, 89, 90, 91, 92, 93, 94, 95, 96, 97, 98, 99, 100, 101, 102, 103, 104, 105, 106, 107, 108, 109, 110, 111, 112, 113, 114, 115, 116, 117, 118, 119, 120, 121, 122, 123, 124, 125, 126, 127, 128, 129, 130, 131, 132, 133, 134, 135, 136, 137, 138, 139, 140, 141, 142, 143, 144, 145, 146, 147, 148, 149, 150, 151, 152, 153, 154, 155, 156, 157, 158, 159, 160, 161, 162, 163, 164, 165, 166, 167, 168, 169, 170, 171, 172, 173, 174, 175, 176, 177, 178, 179, 180, 181, 182, 183, 184, 185, 186, 187, 188, 189, 190, 191, 192, 193, 194, 195, 196, 197, 198, 199, 200, 201, 202],
      "LargestImagePixelValue": [46737, 43633, 46173, 47446, 45453, 43863, 43516, 42770, 42877, 44177, 46565, 46417, 44952, 44515, 43641, 43109, 43072, 42768, 43586, 45013, 44999, 44968, 43771, 43632, 42696, 42999, 43135, 44135, 46488, 46207, 45263, 43696, 43381, 42428, 43068, 46416, 45509, 46431, 45162, 43856, 43152, 42652, 44896, 46346, 46122, 45888, 44953, 44153, 42417, 42688, 46349, 45680, 45244, 43853, 43088, 42745, 43462, 46276, 46741, 45667, 43869, 43245, 42859, 42990, 43322, 42944, 46915, 45796, 45908, 45233, 43780, 42668, 43267, 44630, 45725, 45811, 45216, 43428, 44574, 43694, 43124, 45133, 45384, 44825, 44133, 43320, 43391, 42974, 46510, 44539, 45106, 43970, 43590, 43635, 43596, 43349, 43318, 46348, 45549, 45265, 43770, 43425, 43389, 43111, 43048, 42903, 43468, 43487, 43375, 45621, 45345, 45245, 43738, 43460, 43789, 44838, 46255, 45722, 44553, 43338, 42964, 43296, 43257, 43124, 43659, 43387, 45570, 44131, 44907, 44488, 42965, 43340, 42900, 44511, 45081, 44934, 44821, 43901, 43687, 42947, 43085, 45343, 44995, 44629, 44270, 43003, 43090, 42950, 43406, 43455, 42610, 45207, 44072, 45139, 45002, 43629, 43111, 43695, 43703, 43729, 44827, 45606, 46093, 44948, 43176, 43073, 43065, 42867, 42934, 43995, 44480, 45464, 45142, 42927, 45008, 45375, 45440, 44169, 43469, 43356, 43693, 43028, 45253, 45025, 45475, 44969, 44037, 43561, 43410, 43518, 45583, 44069, 44524, 44297, 44003, 44434, 44573, 44331, 43757, 43608, 43073, 43562],
      "WindowCenter": [11206.0, 11135.0, 11156.0, 11123.0, 11057.0, 11020.0, 11038.0, 11077.0, 11098.0, 11105.0, 11097.0, 11058.0, 11020.0, 11022.0, 11028.0, 11027.0, 11019.0, 11013.0, 11025.0, 11039.0, 11028.0, 11010.0, 10981.0, 10982.0, 10996.0, 11053.0, 11092.0, 11104.0, 11121.0, 11079.0, 11026.0, 10991.0, 11013.0, 11078.0, 11128.0, 11150.0, 11105.0, 11073.0, 11016.0, 10979.0, 10999.0, 11062.0, 11122.0, 11121.0, 11086.0, 11050.0, 11028.0, 11040.0, 11039.0, 11052.0, 11093.0, 11054.0, 11027.0, 11012.0, 11021.0, 11050.0, 11074.0, 11100.0, 11063.0, 11029.0, 10995.0, 11000.0, 11026.0, 11040.0, 11037.0, 11041.0, 11087.0, 11057.0, 11037.0, 11023.0, 11022.0, 11025.0, 11034.0, 11053.0, 11048.0, 11032.0, 11010.0, 11018.0, 11056.0, 11049.0, 11026.0, 11038.0, 11025.0, 10999.0, 10983.0, 10999.0, 11034.0, 11045.0, 11082.0, 11041.0, 11016.0, 10997.0, 11006.0, 11034.0, 11038.0, 11017.0, 11023.0, 11056.0, 11025.0, 10996.0, 10977.0, 10988.0, 11019.0, 11018.0, 11013.0, 10997.0, 11009.0, 11025.0, 11042.0, 11077.0, 11041.0, 11004.0, 10976.0, 11010.0, 11073.0, 11110.0, 11102.0, 11045.0, 11003.0, 10978.0, 10989.0, 11010.0, 11009.0, 11000.0, 10993.0, 11010.0, 11051.0, 11002.0, 10970.0, 10958.0, 10964.0, 11017.0, 11038.0, 11061.0, 11035.0, 10992.0, 10982.0, 10970.0, 10995.0, 10998.0, 11005.0, 11036.0, 11020.0, 10982.0, 10968.0, 10959.0, 10995.0, 11008.0, 11000.0, 10977.0, 10974.0, 11036.0, 11016.0, 10997.0, 10977.0, 10978.0, 11003.0, 11018.0, 11003.0, 11032.0, 11059.0, 11027.0, 11008.0, 10987.0, 10984.0, 11009.0, 11006.0, 10986.0, 10976.0, 10996.0, 11006.0, 11017.0, 11017.0, 10989.0, 11030.0, 11030.0, 11005.0, 10984.0, 10989.0, 11023.0, 11052.0, 11042.0, 11062.0, 11036.0, 11008.0, 10992.0, 10991.0, 11016.0, 11027.0, 11025.0, 11047.0, 11013.0, 10995.0, 10976.0, 10986.0, 11013.0, 11031.0, 11025.0, 11005.0, 11003.0, 10997.0, 11000.0],
      "WindowWidth": [24135.0, 23937.0, 23957.0, 23867.0, 23716.0, 23632.0, 23669.0, 23759.0, 23808.0, 23818.0, 23785.0, 23698.0, 23617.0, 23628.0, 23641.0, 23640.0, 23621.0, 23608.0, 23630.0, 23658.0, 23635.0, 23596.0, 23534.0, 23537.0, 23573.0, 23703.0, 23792.0, 23814.0, 23842.0, 23750.0, 23632.0, 23557.0, 23606.0, 23756.0, 23876.0, 23910.0, 23810.0, 23732.0, 23606.0, 23527.0, 23573.0, 23726.0, 23852.0, 23845.0, 23762.0, 23682.0, 23633.0, 23663.0, 23673.0, 23703.0, 23783.0, 23693.0, 23633.0, 23601.0, 23626.0, 23695.0, 23748.0, 23796.0, 23713.0, 23637.0, 23566.0, 23576.0, 23636.0, 23673.0, 23667.0, 23674.0, 23764.0, 23701.0, 23657.0, 23627.0, 23627.0, 23642.0, 23657.0, 23695.0, 23678.0, 23647.0, 23593.0, 23623.0, 23706.0, 23693.0, 23639.0, 23658.0, 23629.0, 23569.0, 23535.0, 23575.0, 23654.0, 23687.0, 23755.0, 23671.0, 23605.0, 23570.0, 23591.0, 23653.0, 23663.0, 23615.0, 23624.0, 23690.0, 23627.0, 23564.0, 23524.0, 23549.0, 23618.0, 23618.0, 23606.0, 23570.0, 23592.0, 23632.0, 23672.0, 23745.0, 23669.0, 23584.0, 23524.0, 23599.0, 23745.0, 23831.0, 23806.0, 23671.0, 23579.0, 23530.0, 23554.0, 23599.0, 23600.0, 23577.0, 23556.0, 23594.0, 23688.0, 23585.0, 23511.0, 23481.0, 23501.0, 23617.0, 23668.0, 23710.0, 23646.0, 23552.0, 23531.0, 23508.0, 23566.0, 23576.0, 23594.0, 23650.0, 23613.0, 23533.0, 23501.0, 23486.0, 23569.0, 23601.0, 23583.0, 23521.0, 23516.0, 23649.0, 23611.0, 23565.0, 23523.0, 23532.0, 23593.0, 23623.0, 23582.0, 23648.0, 23707.0, 23634.0, 23590.0, 23546.0, 23548.0, 23605.0, 23597.0, 23549.0, 23520.0, 23565.0, 23587.0, 23608.0, 23607.0, 23558.0, 23638.0, 23640.0, 23587.0, 23544.0, 23555.0, 23636.0, 23697.0, 23677.0, 23710.0, 23653.0, 23585.0, 23550.0, 23553.0, 23616.0, 23636.0, 23629.0, 23672.0, 23604.0, 23559.0, 23517.0, 23542.0, 23604.0, 23644.0, 23627.0, 23580.0, 23577.0, 23566.0, 23574.0]
    },
    "slices": {}
  }
}