{
  "AcquisitionMatrixPE": 104,
  "AcquisitionNumber": 1,
  "AcquisitionTime": "11:36:6.235000",
  "BandwidthPerPixelPhaseEncode": 17.17,
  "BaseResolution": 104,
  "BodyPartExamined": "BRAIN",
  "CoilString": "HC1-7;NC1_2",
  "ConsistencyInfo": "N4_VE11C_LATEST_20160120",
  "ConversionSoftware": "dcm2niix",
  "ConversionSoftwareVersion": "v1.0.20190902",
  "DerivedVendorReportedEchoSpacing": 0.000560011,
  "DeviceSerialNumber": "167006",
  "DwellTime": 2.1e-06,
  "EchoTime": 0.037,
  "EchoTrainLength": 104,
  "EffectiveEchoSpacing": 0.000560011,
  "FlipAngle": 52,
  "ImageComments": "Unaliased_MB4_PE3_LB",
  "ImageOrientationPatientDICOM": [0.999687, -0.000310721, -0.0250054, -0.0129121, 0.849909, -0.526771],
  "ImageType": [
    "ORIGINAL",
    "PRIMARY",
    "P",
    "MB",
    "ND",
    "MOSAIC"
],
  "ImagingFrequency": 123.259,
  "InPlanePhaseEncodingDirectionDICOM": "COL",
  "InstitutionAddress": "Chemin_Queen-Mary_4565_Montreal_District_CA_H3W_1W5",
  "InstitutionName": "IUGM",
  "InstitutionalDepartmentName": "Department",
  "MRAcquisitionType": "2D",
  "MagneticFieldStrength": 3,
  "Manufacturer": "Siemens",
  "ManufacturersModelName": "Prisma_fit",
  "Modality": "MR",
  "MultibandAccelerationFactor": 4,
  "PartialFourier": 1,
  "PatientPosition": "HFS",
  "PercentPhaseFOV": 100,
  "PhaseEncodingDirection": "j",
  "PhaseEncodingSteps": 104,
  "PhaseResolution": 1,
  "PixelBandwidth": 2290,
  "ProcedureStepDescription": "localizers_retinotopy",
  "ProtocolName": "func_task-rings",
  "PulseSequenceDetails": "%CustomerSeq%_cmrr_mbep2d_bold",
  "ReceiveCoilActiveElements": "HC1-7;NC1,2",
  "ReceiveCoilName": "HeadNeck_64",
  "ReconMatrixPE": 104,
  "RepetitionTime": 1.49,
  "SAR": 0.0667779,
  "ScanOptions": "FS",
  "ScanningSequence": "EP",
  "SequenceName": "epfid2d1_104",
  "SequenceVariant": "SK_SS",
  "SeriesDescription": "func_task-rings",
  "SeriesNumber": 14,
  "ShimSetting": [609, -7173, -8888, 189, 59, -215, 31, -50],
  "SliceThickness": 2,
  "SliceTiming": [0, 0.785, 0.1, 0.8825, 0.1975, 0.98, 0.295, 1.08, 0.3925, 1.1775, 0.49, 1.275, 0.59, 1.3725, 0.6875, 0, 0.785, 0.1, 0.8825, 0.1975, 0.98, 0.295, 1.08, 0.3925, 1.1775, 0.49, 1.275, 0.59, 1.3725, 0.6875, 0, 0.785, 0.1, 0.8825, 0.1975, 0.98, 0.295, 1.08, 0.3925, 1.1775, 0.49, 1.275, 0.59, 1.3725, 0.6875, 0, 0.785, 0.1, 0.8825, 0.1975, 0.98, 0.295, 1.08, 0.3925, 1.1775, 0.49, 1.275, 0.59, 1.3725, 0.6875],
  "SoftwareVersions": "syngo_MR_E11",
  "SpacingBetweenSlices": 2,
  "StationName": "MRC35049",
  "TaskName": "rings",
  "TotalReadoutTime": 0.0576811,
  "TxRefAmp": 313.449,
  "WipMemBlock": "b3f26f56-5129-4775-8748-93feefb13d94||Sequence: R016 ve11c/master r/e634e98; Dec 19 2017 11:00:25 by eja",
  "dcmmeta_affine": [
    [-1.999374508857727, -0.025824161246418953, -0.04283200204372406, 109.86860656738281],
    [0.0006214420427568257, 1.6998181343078613, -1.0538585186004639, -50.12361526489258],
    [-0.050010815262794495, 1.0535422563552856, 1.699278473854065, -105.59742736816406],
    [0.0, 0.0, 0.0, 1.0]
],
  "dcmmeta_reorient_transform": [
    [0.0, -1.0, 0.0, 103.0],
    [1.0, 0.0, 0.0, 0.0],
    [0.0, 0.0, 1.0, 0.0],
    [0.0, 0.0, 0.0, 1.0]
],
  "dcmmeta_shape": [104, 104, 60, 202],
  "dcmmeta_slice_dim": 2,
  "dcmmeta_version": 0.6,
  "global": {
    "const": {
      "AcquisitionMatrix": [104, 0, 0, 104],
      "AngioFlag": "N",
      "BitsAllocated": 16,
      "BitsStored": 16,
      "BodyPartExamined": "BRAIN",
      "Columns": 832,
      "EchoNumbers": 1,
      "EchoTime": 37.0,
      "EchoTrainLength": 104,
      "FlipAngle": 52.0,
      "HighBit": 15,
      "ImageOrientationPatient": [0.99968726761791, -0.000310721019, -0.0250054077169, -0.0129120807333, 0.8499090752153, -0.5267711476892],
      "ImagePositionPatient": [-825.58105287336, -743.46525696085, 404.61075935061],
      "ImageType": [
        "ORIGINAL",
        "PRIMARY",
        "P",
        "MB",
        "ND",
        "MOSAIC"
],
      "ImagedNucleus": "1H",
      "ImagingFrequency": 123.25895,
      "InPlanePhaseEncodingDirection": "COL",
      "LargestImagePixelValue": 4095,
      "MRAcquisitionType": "2D",
      "MagneticFieldStrength": 3.0,
      "Manufacturer": "SIEMENS",
      "ManufacturerModelName": "Prisma_fit",
      "Modality": "MR",
      "NumberOfAverages": 1.0,
      "NumberOfPhaseEncodingSteps": 104,
      "PercentPhaseFieldOfView": 100.0,
      "PercentSampling": 100.0,
      "PerformedProcedureStepStartTime": "112504.732000",
      "PhotometricInterpretation": "MONOCHROME2",
      "PixelBandwidth": 2290.0,
      "PixelRepresentation": 0,
      "PixelSpacing": [2.0, 2.0],
      "ProtocolName": "func_task-rings",
      "RepetitionTime": 1490.0,
      "RescaleIntercept": -4096.0,
      "RescaleSlope": 2.0,
      "RescaleType": "US",
      "Rows": 832,
      "SAR": 0.06677790224178,
      "SamplesPerPixel": 1,
      "ScanOptions": "FS",
      "ScanningSequence": "EP",
      "SequenceName": "epfid2d1_104",
      "SequenceVariant": [
        "SK",
        "SS"
],
      "SeriesDescription": "func_task-rings",
      "SeriesNumber": 14,
      "SeriesTime": "113721.324000",
      "SliceLocation": -65.661068895087,
      "SliceThickness": 2.0,
      "SmallestImagePixelValue": 0,
      "SoftwareVersions": "syngo MR E11",
      "SpacingBetweenSlices": 1.9999999697386,
      "SpecificCharacterSet": "ISO_IR 100",
      "StudyID": "1",
      "StudyTime": "112504.624000",
      "TransmitCoilName": "Body",
      "VariableFlipAngleFlag": "N",
      "WindowCenterWidthExplanation": "Algo1",
      "dBdt": 0.0},
    "slices": {}
  },
  "time": {
    "samples": {
      "AcquisitionNumber": [1, 2, 3, 4, 5, 6, 7, 8, 9, 10, 11, 12, 13, 14, 15, 16, 17, 18, 19, 20, 21, 22, 23, 24, 25, 26, 27, 28, 29, 30, 31, 32, 33, 34, 35, 36, 37, 38, 39, 40, 41, 42, 43, 44, 45, 46, 47, 48, 49, 50, 51, 52, 53, 54, 55, 56, 57, 58, 59, 60, 61, 62, 63, 64, 65, 66, 67, 68, 69, 70, 71, 72, 73, 74, 75, 76, 77, 78, 79, 80, 81, 82, 83, 84, 85, 86, 87, 88, 89, 90, 91, 92, 93, 94, 95, 96, 97, 98, 99, 100, 101, 102, 103, 104, 105, 106, 107, 108, 109, 110, 111, 112, 113, 114, 115, 116, 117, 118, 119, 120, 121, 122, 123, 124, 125, 126, 127, 128, 129, 130, 131, 132, 133, 134, 135, 136, 137, 138, 139, 140, 141, 142, 143, 144, 145, 146, 147, 148, 149, 150, 151, 152, 153, 154, 155, 156, 157, 158, 159, 160, 161, 162, 163, 164, 165, 166, 167, 168, 169, 170, 171, 172, 173, 174, 175, 176, 177, 178, 179, 180, 181, 182, 183, 184, 185, 186, 187, 188, 189, 190, 191, 192, 193, 194, 195, 196, 197, 198, 199, 200, 201, 202],
      "AcquisitionTime": ["113606.235000", "113607.725000", "113609.215000", "113610.705000", "113612.195000", "113613.685000", "113615.175000", "113616.665000", "113618.155000", "113619.645000", "113621.135000", "113622.625000", "113624.115000", "113625.605000", "113627.095000", "113628.585000", "113630.075000", "113631.565000", "113633.055000", "113634.545000", "113636.035000", "113637.525000", "113639.015000", "113640.505000", "113641.995000", "113643.485000", "113644.975000", "113646.465000", "113647.955000", "113649.445000", "113650.935000", "113652.425000", "113653.915000", "113655.405000", "113656.895000", "113658.385000", "113659.875000", "113701.365000", "113702.855000", "113704.345000", "113705.835000", "113707.325000", "113708.815000", "113710.305000", "113711.795000", "113713.285000", "113714.775000", "113716.265000", "113717.755000", "113719.245000", "113720.735000", "113722.225000", "113723.715000", "113725.205000", "113726.695000", "113728.185000", "113729.675000", "113731.165000", "113732.655000", "113734.145000", "113735.635000", "113737.125000", "113738.615000", "113740.105000", "113741.595000", "113743.085000", "113744.575000", "113746.065000", "113747.555000", "113749.045000", "113750.535000", "113752.025000", "113753.515000", "113755.005000", "113756.495000", "113757.985000", "113759.475000", "113800.965000", "113802.455000", "113803.945000", "113805.435000", "113806.925000", "113808.415000", "113809.905000", "113811.395000", "113812.885000", "113814.375000", "113815.865000", "113817.355000", "113818.845000", "113820.335000", "113821.825000", "113823.315000", "113824.805000", "113826.295000", "113827.785000", "113829.275000", "113830.765000", "113832.255000", "113833.745000", "113835.235000", "113836.725000", "113838.215000", "113839.705000", "113841.195000", "113842.685000", "113844.175000", "113845.665000", "113847.155000", "113848.645000", "113850.135000", "113851.625000", "113853.115000", "113854.605000", "113856.095000", "113857.585000", "113859.075000", "113900.565000", "113902.055000", "113903.545000", "113905.035000", "113906.525000", "113908.015000", "113909.505000", "113910.995000", "113912.485000", "113913.975000", "113915.465000", "113916.955000", "113918.445000", "113919.935000", "113921.425000", "113922.915000", "113924.405000", "113925.895000", "113927.385000", "113928.875000", "113930.365000", "113931.855000", "113933.345000", "113934.835000", "113936.325000", "113937.815000", "113939.305000", "113940.795000", "113942.285000", "113943.775000", "113945.265000", "113946.755000", "113948.245000", "113949.735000", "113951.225000", "113952.715000", "113954.205000", "113955.695000", "113957.185000", "113958.675000", "114000.165000", "114001.655000", "114003.145000", "114004.635000", "114006.125000", "114007.615000", "114009.105000", "114010.595000", "114012.085000", "114013.575000", "114015.065000", "114016.555000", "114018.045000", "114019.535000", "114021.025000", "114022.515000", "114024.005000", "114025.495000", "114026.985000", "114028.475000", "114029.965000", "114031.455000", "114032.945000", "114034.435000", "114035.925000", "114037.415000", "114038.905000", "114040.395000", "114041.885000", "114043.375000", "114044.865000", "114046.355000", "114047.845000", "114049.335000", "114050.825000", "114052.315000", "114053.805000", "114055.295000", "114056.785000", "114058.275000", "114059.765000", "114101.255000", "114102.745000", "114104.235000", "114105.725000"],
      "ContentTime": ["113721.326000", "113721.329000", "113721.331000", "113721.334000", "113721.337000", "113721.339000", "113721.341000", "113721.344000", "113721.348000", "113721.350000", "113721.353000", "113721.355000", "113721.357000", "113721.360000", "113721.362000", "113721.365000", "113721.367000", "113721.370000", "113721.372000", "113721.375000", "113721.377000", "113741.272000", "113741.275000", "113741.277000", "113741.280000", "113741.282000", "113741.285000", "113741.287000", "113741.290000", "113741.292000", "113741.295000", "113741.298000", "113741.301000", "113741.304000", "113741.306000", "113741.309000", "113741.312000", "113741.315000", "113741.318000", "113741.320000", "113741.323000", "113801.284000", "113801.286000", "113801.289000", "113801.291000", "113801.294000", "113801.302000", "113801.304000", "113801.307000", "113801.309000", "113801.312000", "113801.314000", "113801.317000", "113801.319000", "113801.322000", "113801.324000", "113801.327000", "113801.329000", "113801.332000", "113801.334000", "113801.337000", "113801.339000", "113821.283000", "113821.285000", "113821.288000", "113821.290000", "113821.293000", "113821.295000", "113821.298000", "113821.300000", "113821.303000", "113821.305000", "113821.308000", "113821.310000", "113821.313000", "113821.315000", "113821.318000", "113821.320000", "113821.323000", "113821.325000", "113821.328000", "113821.330000", "113841.287000", "113841.290000", "113841.293000", "113841.295000", "113841.298000", "113841.300000", "113841.303000", "113841.307000", "113841.310000", "113841.313000", "113841.316000", "113841.319000", "113841.322000", "113841.326000", "113841.328000", "113841.332000", "113841.334000", "113841.337000", "113841.339000", "113841.342000", "113921.312000", "113921.315000", "113921.318000", "113921.320000", "113921.323000", "113921.325000", "113921.327000", "113921.330000", "113921.332000", "113921.335000", "113921.338000", "113921.340000", "113921.342000", "113921.345000", "113921.347000", "113921.350000", "113921.352000", "113921.355000", "113921.357000", "113921.368000", "113921.370000", "113921.373000", "113921.375000", "113921.378000", "113921.380000", "113921.382000", "113921.385000", "113921.387000", "114001.303000", "114001.305000", "114001.308000", "114001.310000", "114001.313000", "114001.315000", "114001.318000", "114001.320000", "114001.323000", "114001.326000", "114001.328000", "114001.331000", "114001.333000", "114001.336000", "114001.338000", "114001.341000", "114001.343000", "114001.346000", "114001.348000", "114001.351000", "114001.353000", "114001.356000", "114001.358000", "114001.361000", "114001.363000", "114001.366000", "114001.368000", "114041.328000", "114041.331000", "114041.334000", "114041.336000", "114041.339000", "114041.341000", "114041.344000", "114041.346000", "114041.349000", "114041.351000", "114041.354000", "114041.357000", "114041.359000", "114041.361000", "114041.364000", "114041.366000", "114041.369000", "114041.371000", "114041.374000", "114041.376000", "114041.379000", "114041.381000", "114041.384000", "114041.386000", "114041.389000", "114041.391000", "114041.394000", "114108.160000", "114108.163000", "114108.165000", "114108.168000", "114108.170000", "114108.173000", "114108.176000", "114108.178000", "114108.181000", "114108.184000", "114108.187000", "114108.190000", "114108.193000", "114108.202000", "114108.204000", "114108.207000", "114108.210000", "114108.212000"],
      "InstanceCreationTime": ["113721.326000", "113721.329000", "113721.331000", "113721.334000", "113721.337000", "113721.339000", "113721.341000", "113721.344000", "113721.348000", "113721.350000", "113721.353000", "113721.355000", "113721.357000", "113721.360000", "113721.362000", "113721.365000", "113721.367000", "113721.370000", "113721.372000", "113721.375000", "113721.377000", "113741.272000", "113741.275000", "113741.277000", "113741.280000", "113741.282000", "113741.285000", "113741.287000", "113741.290000", "113741.292000", "113741.295000", "113741.298000", "113741.301000", "113741.304000", "113741.306000", "113741.309000", "113741.312000", "113741.315000", "113741.318000", "113741.320000", "113741.323000", "113801.284000", "113801.286000", "113801.289000", "113801.291000", "113801.294000", "113801.302000", "113801.304000", "113801.307000", "113801.309000", "113801.312000", "113801.314000", "113801.317000", "113801.319000", "113801.322000", "113801.324000", "113801.327000", "113801.329000", "113801.332000", "113801.334000", "113801.337000", "113801.339000", "113821.283000", "113821.285000", "113821.288000", "113821.290000", "113821.293000", "113821.295000", "113821.298000", "113821.300000", "113821.303000", "113821.305000", "113821.308000", "113821.310000", "113821.313000", "113821.315000", "113821.318000", "113821.320000", "113821.323000", "113821.325000", "113821.328000", "113821.330000", "113841.287000", "113841.290000", "113841.293000", "113841.295000", "113841.298000", "113841.300000", "113841.303000", "113841.307000", "113841.310000", "113841.313000", "113841.316000", "113841.319000", "113841.322000", "113841.326000", "113841.328000", "113841.332000", "113841.334000", "113841.337000", "113841.339000", "113841.342000", "113921.312000", "113921.315000", "113921.318000", "113921.320000", "113921.323000", "113921.325000", "113921.327000", "113921.330000", "113921.332000", "113921.335000", "113921.338000", "113921.340000", "113921.342000", "113921.345000", "113921.347000", "113921.350000", "113921.352000", "113921.355000", "113921.357000", "113921.368000", "113921.370000", "113921.373000", "113921.375000", "113921.378000", "113921.380000", "113921.382000", "113921.385000", "113921.387000", "114001.303000", "114001.305000", "114001.308000", "114001.310000", "114001.313000", "114001.315000", "114001.318000", "114001.320000", "114001.323000", "114001.326000", "114001.328000", "114001.331000", "114001.333000", "114001.336000", "114001.338000", "114001.341000", "114001.343000", "114001.346000", "114001.348000", "114001.351000", "114001.353000", "114001.356000", "114001.358000", "114001.361000", "114001.363000", "114001.366000", "114001.368000", "114041.328000", "114041.331000", "114041.334000", "114041.336000", "114041.339000", "114041.341000", "114041.344000", "114041.346000", "114041.349000", "114041.351000", "114041.354000", "114041.357000", "114041.359000", "114041.361000", "114041.364000", "114041.366000", "114041.369000", "114041.371000", "114041.374000", "114041.376000", "114041.379000", "114041.381000", "114041.384000", "114041.386000", "114041.389000", "114041.391000", "114041.394000", "114108.160000", "114108.163000", "114108.165000", "114108.168000", "114108.170000", "114108.173000", "114108.176000", "114108.178000", "114108.181000", "114108.184000", "114108.187000", "114108.190000", "114108.193000", "114108.202000", "114108.204000", "114108.207000", "114108.210000", "114108.212000"],
      "InstanceNumber": [1, 2, 3, 4, 5, 6, 7, 8, 9, 10, 11, 12, 13, 14, 15, 16, 17, 18, 19, 20, 21, 22, 23, 24, 25, 26, 27, 28, 29, 30, 31, 32, 33, 34, 35, 36, 37, 38, 39, 40, 41, 42, 43, 44, 45, 46, 47, 48, 49, 50, 51, 52, 53, 54, 55, 56, 57, 58, 59, 60, 61, 62, 63, 64, 65, 66, 67, 68, 69, 70, 71, 72, 73, 74, 75, 76, 77, 78, 79, 80, 81, 82, 83, 84, 85, 86, 87, 88, 89, 90, 91, 92, 93, 94, 95, 96, 97, 98, 99, 100, 101, 102, 103, 104, 105, 106, 107, 108, 109, 110, 111, 112, 113, 114, 115, 116, 117, 118, 119, 120, 121, 122, 123, 124, 125, 126, 127, 128, 129, 130, 131, 132, 133, 134, 135, 136, 137, 138, 139, 140, 141, 142, 143, 144, 145, 146, 147, 148, 149, 150, 151, 152, 153, 154, 155, 156, 157, 158, 159, 160, 161, 162, 163, 164, 165, 166, 167, 168, 169, 170, 171, 172, 173, 174, 175, 176, 177, 178, 179, 180, 181, 182, 183, 184, 185, 186, 187, 188, 189, 190, 191, 192, 193, 194, 195, 196, 197, 198, 199, 200, 201, 202],
      "WindowCenter": [4774.0, 4770.0, 4802.0, 4806.0, 4802.0, 4800.0, 4782.0, 4786.0, 4786.0, 4794.0, 4786.0, 4778.0, 4798.0, 4830.0, 4826.0, 4800.0, 4778.0, 4806.0, 4786.0, 4788.0, 4786.0, 4788.0, 4784.0, 4778.0, 4796.0, 4802.0, 4804.0, 4776.0, 4782.0, 4782.0, 4782.0, 4786.0, 4780.0, 4786.0, 4782.0, 4776.0, 4802.0, 4778.0, 4784.0, 4780.0, 4798.0, 4802.0, 4798.0, 4802.0, 4802.0, 4784.0, 4784.0, 4786.0, 4786.0, 4784.0, 4778.0, 4796.0, 4804.0, 4798.0, 4780.0, 4762.0, 4780.0, 4778.0, 4798.0, 4776.0, 4784.0, 4782.0, 4800.0, 4774.0, 4776.0, 4780.0, 4778.0, 4784.0, 4760.0, 4780.0, 4776.0, 4800.0, 4802.0, 4776.0, 4784.0, 4788.0, 4782.0, 4778.0, 4796.0, 4778.0, 4760.0, 4760.0, 4774.0, 4802.0, 4828.0, 4830.0, 4802.0, 4802.0, 4784.0, 4786.0, 4792.0, 4798.0, 4782.0, 4800.0, 4804.0, 4830.0, 4798.0, 4782.0, 4780.0, 4800.0, 4798.0, 4798.0, 4802.0, 4804.0, 4802.0, 4786.0, 4762.0, 4778.0, 4800.0, 4804.0, 4802.0, 4800.0, 4780.0, 4788.0, 4764.0, 4786.0, 4780.0, 4780.0, 4800.0, 4780.0, 4782.0, 4780.0, 4798.0, 4802.0, 4802.0, 4800.0, 4784.0, 4764.0, 4786.0, 4784.0, 4800.0, 4802.0, 4806.0, 4802.0, 4802.0, 4788.0, 4788.0, 4784.0, 4778.0, 4776.0, 4798.0, 4800.0, 4780.0, 4786.0, 4802.0, 4800.0, 4806.0, 4778.0, 4780.0, 4782.0, 4784.0, 4784.0, 4776.0, 4800.0, 4804.0, 4802.0, 4800.0, 4802.0, 4786.0, 4762.0, 4784.0, 4780.0, 4780.0, 4802.0, 4806.0, 4806.0, 4802.0, 4782.0, 4786.0, 4784.0, 4782.0, 4804.0, 4782.0, 4778.0, 4772.0, 4772.0, 4794.0, 4798.0, 4800.0, 4774.0, 4802.0, 4782.0, 4786.0, 4788.0, 4786.0, 4798.0, 4804.0, 4802.0, 4780.0, 4774.0, 4798.0, 4810.0, 4804.0, 4804.0, 4780.0, 4784.0, 4786.0, 4788.0, 4784.0, 4778.0, 4802.0, 4808.0],
      "WindowWidth": [18586.0, 18584.0, 18624.0, 18620.0, 18618.0, 18608.0, 18578.0, 18576.0, 18560.0, 18540.0, 18564.0, 18580.0, 18620.0, 18656.0, 18654.0, 18616.0, 18578.0, 18612.0, 18580.0, 18578.0, 18576.0, 18562.0, 18580.0, 18584.0, 18610.0, 18622.0, 18622.0, 18580.0, 18586.0, 18584.0, 18574.0, 18580.0, 18586.0, 18584.0, 18580.0, 18580.0, 18616.0, 18588.0, 18580.0, 18582.0, 18612.0, 18618.0, 18610.0, 18618.0, 18612.0, 18584.0, 18580.0, 18574.0, 18568.0, 18576.0, 18578.0, 18614.0, 18618.0, 18614.0, 18580.0, 18534.0, 18576.0, 18578.0, 18612.0, 18580.0, 18586.0, 18580.0, 18608.0, 18578.0, 18580.0, 18580.0, 18580.0, 18568.0, 18534.0, 18580.0, 18578.0, 18614.0, 18618.0, 18578.0, 18576.0, 18570.0, 18576.0, 18576.0, 18608.0, 18582.0, 18534.0, 18524.0, 18582.0, 18626.0, 18656.0, 18652.0, 18614.0, 18612.0, 18576.0, 18574.0, 18548.0, 18534.0, 18566.0, 18614.0, 18622.0, 18644.0, 18614.0, 18586.0, 18580.0, 18612.0, 18612.0, 18612.0, 18614.0, 18608.0, 18608.0, 18562.0, 18524.0, 18578.0, 18612.0, 18618.0, 18618.0, 18612.0, 18582.0, 18576.0, 18538.0, 18578.0, 18580.0, 18582.0, 18612.0, 18582.0, 18578.0, 18580.0, 18612.0, 18614.0, 18618.0, 18614.0, 18568.0, 18522.0, 18570.0, 18580.0, 18610.0, 18620.0, 18620.0, 18618.0, 18610.0, 18574.0, 18560.0, 18576.0, 18578.0, 18582.0, 18612.0, 18612.0, 18580.0, 18582.0, 18612.0, 18608.0, 18616.0, 18582.0, 18582.0, 18584.0, 18568.0, 18570.0, 18576.0, 18612.0, 18620.0, 18616.0, 18616.0, 18612.0, 18580.0, 18526.0, 18562.0, 18572.0, 18582.0, 18614.0, 18618.0, 18624.0, 18616.0, 18578.0, 18562.0, 18570.0, 18578.0, 18614.0, 18584.0, 18586.0, 18586.0, 18584.0, 18612.0, 18614.0, 18616.0, 18584.0, 18616.0, 18578.0, 18562.0, 18560.0, 18580.0, 18610.0, 18620.0, 18616.0, 18580.0, 18574.0, 18612.0, 18626.0, 18616.0, 18614.0, 18574.0, 18580.0, 18552.0, 18546.0, 18566.0, 18578.0, 18620.0, 18622.0]
    },
    "slices": {}
  }
}