{
  "AcquisitionMatrixPE": 104,
  "AcquisitionNumber": 1,
  "AcquisitionTime": "14:29:56.515000",
  "BandwidthPerPixelPhaseEncode": 17.17,
  "BaseResolution": 104,
  "BodyPartExamined": "BRAIN",
  "CoilString": "HC1-7;NC1_2",
  "ConsistencyInfo": "N4_VE11C_LATEST_20160120",
  "ConversionSoftware": "dcm2niix",
  "ConversionSoftwareVersion": "v1.0.20190902",
  "DerivedVendorReportedEchoSpacing": 0.000560011,
  "DeviceSerialNumber": "167006",
  "DwellTime": 2.1e-06,
  "EchoTime": 0.037,
  "EchoTrainLength": 104,
  "EffectiveEchoSpacing": 0.000560011,
  "FlipAngle": 52,
  "ImageComments": "Unaliased_MB4_PE3_LB",
  "ImageOrientationPatientDICOM": [0.99961, 4.28591e-05, 0.0279099, 0.00767659, 0.961007, -0.276418],
  "ImageType": [
    "ORIGINAL",
    "PRIMARY",
    "M",
    "MB",
    "ND",
    "MOSAIC"
],
  "ImagingFrequency": 123.259,
  "InPlanePhaseEncodingDirectionDICOM": "COL",
  "InstitutionAddress": "Chemin_Queen-Mary_4565_Montreal_District_CA_H3W_1W5",
  "InstitutionName": "IUGM",
  "InstitutionalDepartmentName": "Department",
  "MRAcquisitionType": "2D",
  "MagneticFieldStrength": 3,
  "Manufacturer": "Siemens",
  "ManufacturersModelName": "Prisma_fit",
  "Modality": "MR",
  "MultibandAccelerationFactor": 4,
  "PartialFourier": 1,
  "PatientPosition": "HFS",
  "PercentPhaseFOV": 100,
  "PhaseEncodingDirection": "j",
  "PhaseEncodingSteps": 104,
  "PhaseResolution": 1,
  "PixelBandwidth": 2290,
  "ProcedureStepDescription": "localizers_retinotopy",
  "ProtocolName": "func_task-bars",
  "PulseSequenceDetails": "%CustomerSeq%_cmrr_mbep2d_bold",
  "ReceiveCoilActiveElements": "HC1-7;NC1,2",
  "ReceiveCoilName": "HeadNeck_64",
  "ReconMatrixPE": 104,
  "RepetitionTime": 1.49,
  "SAR": 0.0367106,
  "ScanOptions": "FS",
  "ScanningSequence": "EP",
  "SequenceName": "epfid2d1_104",
  "SequenceVariant": "SK_SS",
  "SeriesDescription": "func_task-bars",
  "SeriesNumber": 16,
  "ShimSetting": [634, -7212, -8797, 694, 58, 26, 50, -23],
  "SliceThickness": 2,
  "SliceTiming": [0, 0.7825, 0.0975, 0.8825, 0.195, 0.98, 0.2925, 1.0775, 0.3925, 1.175, 0.49, 1.2725, 0.5875, 1.3725, 0.685, 0, 0.7825, 0.0975, 0.8825, 0.195, 0.98, 0.2925, 1.0775, 0.3925, 1.175, 0.49, 1.2725, 0.5875, 1.3725, 0.685, 0, 0.7825, 0.0975, 0.8825, 0.195, 0.98, 0.2925, 1.0775, 0.3925, 1.175, 0.49, 1.2725, 0.5875, 1.3725, 0.685, 0, 0.7825, 0.0975, 0.8825, 0.195, 0.98, 0.2925, 1.0775, 0.3925, 1.175, 0.49, 1.2725, 0.5875, 1.3725, 0.685],
  "SoftwareVersions": "syngo_MR_E11",
  "SpacingBetweenSlices": 2,
  "StationName": "MRC35049",
  "TaskName": "bars",
  "TotalReadoutTime": 0.0576811,
  "TxRefAmp": 220.342,
  "WipMemBlock": "63914012-9ced-4fe5-b6f3-4516b4fae701||Sequence: R016 ve11c/master r/e634e98; Dec 19 2017 11:00:25 by eja",
  "dcmmeta_affine": [
    [-1.999220848083496, 0.01535318698734045, 0.0536668635904789, 106.89583587646484],
    [-8.571821672376245e-05, 1.922013759613037, -0.5530490279197693, -73.45849609375],
    [0.05581975355744362, 0.5528358817100525, 1.921264410018921, -67.10161590576172],
    [0.0, 0.0, 0.0, 1.0]
],
  "dcmmeta_reorient_transform": [
    [0.0, -1.0, 0.0, 103.0],
    [1.0, 0.0, 0.0, 0.0],
    [0.0, 0.0, 1.0, 0.0],
    [0.0, 0.0, 0.0, 1.0]
],
  "dcmmeta_shape": [104, 104, 60, 202],
  "dcmmeta_slice_dim": 2,
  "dcmmeta_version": 0.6,
  "global": {
    "const": {
      "AcquisitionMatrix": [104, 0, 0, 104],
      "AngioFlag": "N",
      "BitsAllocated": 16,
      "BitsStored": 16,
      "BodyPartExamined": "BRAIN",
      "Columns": 832,
      "EchoNumbers": 1,
      "EchoTime": 37.0,
      "EchoTrainLength": 104,
      "FlipAngle": 52.0,
      "HighBit": 15,
      "ImageOrientationPatient": [0.99961044257603, 4.285910757e-05, 0.02790987739219, 0.00767659337598, 0.9610068640094, -0.2764179394341],
      "ImagePositionPatient": [-841.78217974727, -824.1531154219, 170.75435123455],
      "ImageType": [
        "ORIGINAL",
        "PRIMARY",
        "M",
        "MB",
        "ND",
        "MOSAIC"
],
      "ImagedNucleus": "1H",
      "ImagingFrequency": 123.258953,
      "InPlanePhaseEncodingDirection": "COL",
      "MRAcquisitionType": "2D",
      "MagneticFieldStrength": 3.0,
      "Manufacturer": "SIEMENS",
      "ManufacturerModelName": "Prisma_fit",
      "Modality": "MR",
      "NumberOfAverages": 1.0,
      "NumberOfPhaseEncodingSteps": 104,
      "PercentPhaseFieldOfView": 100.0,
      "PercentSampling": 100.0,
      "PerformedProcedureStepStartTime": "141146.954000",
      "PhotometricInterpretation": "MONOCHROME2",
      "PixelBandwidth": 2290.0,
      "PixelRepresentation": 0,
      "PixelSpacing": [2.0, 2.0],
      "ProtocolName": "func_task-bars",
      "RepetitionTime": 1490.0,
      "Rows": 832,
      "SAR": 0.03671062427882,
      "SamplesPerPixel": 1,
      "ScanOptions": "FS",
      "ScanningSequence": "EP",
      "SequenceName": "epfid2d1_104",
      "SequenceVariant": [
        "SK",
        "SS"
],
      "SeriesDescription": "func_task-bars",
      "SeriesNumber": 16,
      "SeriesTime": "143113.866000",
      "SliceLocation": -41.278511280283,
      "SliceThickness": 2.0,
      "SmallestImagePixelValue": 0,
      "SoftwareVersions": "syngo MR E11",
      "SpacingBetweenSlices": 2.0000000521286,
      "SpecificCharacterSet": "ISO_IR 100",
      "StudyID": "1",
      "StudyTime": "141146.879000",
      "TransmitCoilName": "Body",
      "VariableFlipAngleFlag": "N",
      "WindowCenterWidthExplanation": "Algo1",
      "dBdt": 0.0},
    "slices": {}
  },
  "time": {
    "samples": {
      "AcquisitionNumber": [1, 2, 3, 4, 5, 6, 7, 8, 9, 10, 11, 12, 13, 14, 15, 16, 17, 18, 19, 20, 21, 22, 23, 24, 25, 26, 27, 28, 29, 30, 31, 32, 33, 34, 35, 36, 37, 38, 39, 40, 41, 42, 43, 44, 45, 46, 47, 48, 49, 50, 51, 52, 53, 54, 55, 56, 57, 58, 59, 60, 61, 62, 63, 64, 65, 66, 67, 68, 69, 70, 71, 72, 73, 74, 75, 76, 77, 78, 79, 80, 81, 82, 83, 84, 85, 86, 87, 88, 89, 90, 91, 92, 93, 94, 95, 96, 97, 98, 99, 100, 101, 102, 103, 104, 105, 106, 107, 108, 109, 110, 111, 112, 113, 114, 115, 116, 117, 118, 119, 120, 121, 122, 123, 124, 125, 126, 127, 128, 129, 130, 131, 132, 133, 134, 135, 136, 137, 138, 139, 140, 141, 142, 143, 144, 145, 146, 147, 148, 149, 150, 151, 152, 153, 154, 155, 156, 157, 158, 159, 160, 161, 162, 163, 164, 165, 166, 167, 168, 169, 170, 171, 172, 173, 174, 175, 176, 177, 178, 179, 180, 181, 182, 183, 184, 185, 186, 187, 188, 189, 190, 191, 192, 193, 194, 195, 196, 197, 198, 199, 200, 201, 202],
      "AcquisitionTime": ["142956.515000", "142958.005000", "142959.495000", "143000.985000", "143002.475000", "143003.965000", "143005.455000", "143006.945000", "143008.435000", "143009.925000", "143011.415000", "143012.905000", "143014.395000", "143015.885000", "143017.375000", "143018.865000", "143020.355000", "143021.845000", "143023.335000", "143024.825000", "143026.315000", "143027.805000", "143029.295000", "143030.785000", "143032.275000", "143033.765000", "143035.255000", "143036.745000", "143038.235000", "143039.725000", "143041.215000", "143042.705000", "143044.195000", "143045.685000", "143047.175000", "143048.665000", "143050.155000", "143051.645000", "143053.135000", "143054.625000", "143056.115000", "143057.605000", "143059.095000", "143100.585000", "143102.075000", "143103.565000", "143105.055000", "143106.545000", "143108.035000", "143109.525000", "143111.015000", "143112.505000", "143113.995000", "143115.485000", "143116.975000", "143118.465000", "143119.955000", "143121.445000", "143122.935000", "143124.425000", "143125.915000", "143127.405000", "143128.895000", "143130.385000", "143131.875000", "143133.365000", "143134.855000", "143136.345000", "143137.835000", "143139.325000", "143140.815000", "143142.305000", "143143.795000", "143145.285000", "143146.775000", "143148.265000", "143149.755000", "143151.245000", "143152.735000", "143154.225000", "143155.715000", "143157.205000", "143158.695000", "143200.185000", "143201.675000", "143203.165000", "143204.655000", "143206.145000", "143207.635000", "143209.125000", "143210.615000", "143212.105000", "143213.595000", "143215.085000", "143216.575000", "143218.065000", "143219.555000", "143221.045000", "143222.535000", "143224.025000", "143225.515000", "143227.005000", "143228.495000", "143229.985000", "143231.475000", "143232.965000", "143234.455000", "143235.945000", "143237.435000", "143238.925000", "143240.415000", "143241.905000", "143243.395000", "143244.885000", "143246.375000", "143247.865000", "143249.355000", "143250.845000", "143252.335000", "143253.825000", "143255.315000", "143256.805000", "143258.295000", "143259.785000", "143301.275000", "143302.765000", "143304.255000", "143305.745000", "143307.235000", "143308.725000", "143310.215000", "143311.705000", "143313.195000", "143314.685000", "143316.175000", "143317.665000", "143319.155000", "143320.645000", "143322.135000", "143323.625000", "143325.115000", "143326.605000", "143328.095000", "143329.585000", "143331.075000", "143332.565000", "143334.055000", "143335.545000", "143337.035000", "143338.525000", "143340.015000", "143341.505000", "143342.995000", "143344.485000", "143345.975000", "143347.465000", "143348.955000", "143350.445000", "143351.935000", "143353.425000", "143354.915000", "143356.405000", "143357.895000", "143359.385000", "143400.875000", "143402.365000", "143403.855000", "143405.345000", "143406.835000", "143408.325000", "143409.815000", "143411.305000", "143412.795000", "143414.285000", "143415.775000", "143417.265000", "143418.755000", "143420.245000", "143421.735000", "143423.225000", "143424.715000", "143426.205000", "143427.695000", "143429.185000", "143430.675000", "143432.165000", "143433.655000", "143435.145000", "143436.635000", "143438.125000", "143439.615000", "143441.105000", "143442.595000", "143444.085000", "143445.575000", "143447.065000", "143448.555000", "143450.045000", "143451.535000", "143453.025000", "143454.515000", "143456.005000"],
      "ContentTime": ["143113.870000", "143113.874000", "143113.877000", "143113.880000", "143113.884000", "143113.887000", "143113.891000", "143113.894000", "143113.897000", "143113.904000", "143113.908000", "143113.911000", "143113.915000", "143113.918000", "143113.921000", "143113.925000", "143113.928000", "143113.932000", "143113.935000", "143113.938000", "143113.942000", "143113.945000", "143133.828000", "143133.832000", "143133.835000", "143133.839000", "143133.842000", "143133.846000", "143133.849000", "143133.853000", "143133.856000", "143133.860000", "143133.863000", "143133.867000", "143133.871000", "143133.874000", "143133.877000", "143133.881000", "143133.884000", "143133.888000", "143133.902000", "143133.906000", "143153.828000", "143153.832000", "143153.835000", "143153.839000", "143153.842000", "143153.846000", "143153.849000", "143153.859000", "143153.862000", "143153.866000", "143153.869000", "143153.873000", "143153.876000", "143153.880000", "143153.883000", "143153.886000", "143153.890000", "143153.893000", "143153.897000", "143153.900000", "143153.903000", "143213.828000", "143213.832000", "143213.835000", "143213.839000", "143213.842000", "143213.845000", "143213.849000", "143213.853000", "143213.856000", "143213.860000", "143213.863000", "143213.867000", "143213.870000", "143213.873000", "143213.877000", "143213.880000", "143213.884000", "143213.887000", "143213.890000", "143213.894000", "143233.829000", "143233.833000", "143233.837000", "143233.840000", "143233.844000", "143233.847000", "143233.851000", "143233.855000", "143233.859000", "143233.863000", "143233.866000", "143233.870000", "143233.873000", "143233.877000", "143233.880000", "143233.884000", "143233.887000", "143233.890000", "143233.894000", "143233.897000", "143313.829000", "143313.833000", "143313.836000", "143313.840000", "143313.843000", "143313.846000", "143313.850000", "143313.853000", "143313.857000", "143313.860000", "143313.864000", "143313.867000", "143313.870000", "143313.874000", "143313.877000", "143313.881000", "143313.885000", "143313.889000", "143313.892000", "143313.895000", "143313.899000", "143313.902000", "143313.906000", "143313.909000", "143313.913000", "143313.916000", "143313.919000", "143313.923000", "143333.828000", "143333.832000", "143333.835000", "143333.839000", "143333.842000", "143333.855000", "143333.859000", "143333.862000", "143333.866000", "143333.869000", "143333.872000", "143333.876000", "143333.879000", "143333.883000", "143413.828000", "143413.832000", "143413.835000", "143413.839000", "143413.842000", "143413.845000", "143413.849000", "143413.852000", "143413.856000", "143413.859000", "143413.862000", "143413.866000", "143413.869000", "143413.873000", "143413.876000", "143413.880000", "143413.883000", "143413.886000", "143413.890000", "143413.893000", "143413.897000", "143413.900000", "143413.903000", "143413.907000", "143413.910000", "143413.914000", "143413.917000", "143453.829000", "143453.833000", "143453.837000", "143453.840000", "143453.844000", "143453.847000", "143453.851000", "143453.855000", "143453.858000", "143453.862000", "143453.865000", "143453.869000", "143453.872000", "143453.876000", "143453.879000", "143453.882000", "143453.886000", "143453.889000", "143453.893000", "143453.896000", "143453.900000", "143453.903000", "143453.906000", "143453.910000", "143453.913000", "143453.917000", "143458.370000", "143458.374000", "143458.377000", "143458.381000"],
      "InstanceCreationTime": ["143113.870000", "143113.874000", "143113.877000", "143113.880000", "143113.884000", "143113.887000", "143113.891000", "143113.894000", "143113.897000", "143113.904000", "143113.908000", "143113.911000", "143113.915000", "143113.918000", "143113.921000", "143113.925000", "143113.928000", "143113.932000", "143113.935000", "143113.938000", "143113.942000", "143113.945000", "143133.828000", "143133.832000", "143133.835000", "143133.839000", "143133.842000", "143133.846000", "143133.849000", "143133.853000", "143133.856000", "143133.860000", "143133.863000", "143133.867000", "143133.871000", "143133.874000", "143133.877000", "143133.881000", "143133.884000", "143133.888000", "143133.902000", "143133.906000", "143153.828000", "143153.832000", "143153.835000", "143153.839000", "143153.842000", "143153.846000", "143153.849000", "143153.859000", "143153.862000", "143153.866000", "143153.869000", "143153.873000", "143153.876000", "143153.880000", "143153.883000", "143153.886000", "143153.890000", "143153.893000", "143153.897000", "143153.900000", "143153.903000", "143213.828000", "143213.832000", "143213.835000", "143213.839000", "143213.842000", "143213.845000", "143213.849000", "143213.853000", "143213.856000", "143213.860000", "143213.863000", "143213.867000", "143213.870000", "143213.873000", "143213.877000", "143213.880000", "143213.884000", "143213.887000", "143213.890000", "143213.894000", "143233.829000", "143233.833000", "143233.837000", "143233.840000", "143233.844000", "143233.847000", "143233.851000", "143233.855000", "143233.859000", "143233.863000", "143233.866000", "143233.870000", "143233.873000", "143233.877000", "143233.880000", "143233.884000", "143233.887000", "143233.890000", "143233.894000", "143233.897000", "143313.829000", "143313.833000", "143313.836000", "143313.840000", "143313.843000", "143313.846000", "143313.850000", "143313.853000", "143313.857000", "143313.860000", "143313.864000", "143313.867000", "143313.870000", "143313.874000", "143313.877000", "143313.881000", "143313.885000", "143313.889000", "143313.892000", "143313.895000", "143313.899000", "143313.902000", "143313.906000", "143313.909000", "143313.913000", "143313.916000", "143313.919000", "143313.923000", "143333.828000", "143333.832000", "143333.835000", "143333.839000", "143333.842000", "143333.855000", "143333.859000", "143333.862000", "143333.866000", "143333.869000", "143333.872000", "143333.876000", "143333.879000", "143333.883000", "143413.828000", "143413.832000", "143413.835000", "143413.839000", "143413.842000", "143413.845000", "143413.849000", "143413.852000", "143413.856000", "143413.859000", "143413.862000", "143413.866000", "143413.869000", "143413.873000", "143413.876000", "143413.880000", "143413.883000", "143413.886000", "143413.890000", "143413.893000", "143413.897000", "143413.900000", "143413.903000", "143413.907000", "143413.910000", "143413.914000", "143413.917000", "143453.829000", "143453.833000", "143453.837000", "143453.840000", "143453.844000", "143453.847000", "143453.851000", "143453.855000", "143453.858000", "143453.862000", "143453.865000", "143453.869000", "143453.872000", "143453.876000", "143453.879000", "143453.882000", "143453.886000", "143453.889000", "143453.893000", "143453.896000", "143453.900000", "143453.903000", "143453.906000", "143453.910000", "143453.913000", "143453.917000", "143458.370000", "143458.374000", "143458.377000", "143458.381000"],
      "InstanceNumber": [1, 2, 3, 4, 5, 6, 7, 8, 9, 10, 11, 12, 13, 14, 15, 16, 17, 18, 19, 20, 21, 22, 23, 24, 25, 26, 27, 28, 29, 30, 31, 32, 33, 34, 35, 36, 37, 38, 39, 40, 41, 42, 43, 44, 45, 46, 47, 48, 49, 50, 51, 52, 53, 54, 55, 56, 57, 58, 59, 60, 61, 62, 63, 64, 65, 66, 67, 68, 69, 70, 71, 72, 73, 74, 75, 76, 77, 78, 79, 80, 81, 82, 83, 84, 85, 86, 87, 88, 89, 90, 91, 92, 93, 94, 95, 96, 97, 98, 99, 100, 101, 102, 103, 104, 105, 106, 107, 108, 109, 110, 111, 112, 113, 114, 115, 116, 117, 118, 119, 120, 121, 122, 123, 124, 125, 126, 127, 128, 129, 130, 131, 132, 133, 134, 135, 136, 137, 138, 139, 140, 141, 142, 143, 144, 145, 146, 147, 148, 149, 150, 151, 152, 153, 154, 155, 156, 157, 158, 159, 160, 161, 162, 163, 164, 165, 166, 167, 168, 169, 170, 171, 172, 173, 174, 175, 176, 177, 178, 179, 180, 181, 182, 183, 184, 185, 186, 187, 188, 189, 190, 191, 192, 193, 194, 195, 196, 197, 198, 199, 200, 201, 202],
      "LargestImagePixelValue": [39597, 38643, 38252, 37994, 37837, 37555, 37628, 37842, 37813, 37736, 37397, 37406, 37457, 37489, 37381, 37605, 37606, 37510, 37458, 37377, 37271, 37078, 37219, 37363, 37856, 37436, 37496, 37450, 37568, 37349, 37297, 37247, 37448, 37875, 37536, 37101, 37179, 37283, 37340, 37446, 37497, 37701, 37610, 37642, 37339, 37530, 37292, 37375, 37450, 37428, 37732, 37951, 37248, 37472, 37372, 37468, 37486, 37495, 37446, 37312, 37494, 37817, 37670, 37387, 37641, 37727, 37550, 37392, 37282, 37270, 37407, 37003, 37425, 37467, 37373, 37611, 37130, 37346, 37571, 37404, 37195, 37414, 37213, 37617, 37753, 37783, 37568, 37830, 37828, 38050, 37780, 38018, 38167, 38443, 38270, 38340, 37780, 37929, 37780, 37993, 37471, 37600, 37807, 37662, 38038, 37221, 37589, 37649, 37340, 38173, 37975, 37778, 37685, 37446, 36799, 36841, 36920, 37053, 37189, 36708, 36740, 37565, 37083, 37016, 37073, 37156, 37236, 37346, 37678, 37535, 37653, 37606, 37273, 37564, 37457, 38030, 37589, 37244, 37392, 38044, 37950, 37565, 37918, 37790, 37903, 37739, 37679, 37857, 37900, 37948, 38026, 37689, 37840, 37368, 37643, 37577, 37983, 37830, 37870, 38069, 37977, 38126, 38162, 38512, 37987, 37861, 37976, 38054, 38139, 38067, 37651, 37625, 37658, 37630, 38183, 37920, 37532, 37947, 37958, 37747, 37445, 37508, 37776, 37720, 37965, 37455, 37510, 37434, 37738, 37663, 37870, 37649, 37879, 37682, 37648, 37518, 37542, 36889, 37290, 37537, 37779, 37826],
      "WindowCenter": [10114.0, 10099.0, 10098.0, 10067.0, 10032.0, 9999.0, 9993.0, 10008.0, 10027.0, 10031.0, 10029.0, 10022.0, 10019.0, 10029.0, 10040.0, 10047.0, 10045.0, 10047.0, 10056.0, 10074.0, 10077.0, 10077.0, 10067.0, 10066.0, 10071.0, 10065.0, 10049.0, 10046.0, 10047.0, 10054.0, 10063.0, 10067.0, 10075.0, 10066.0, 10056.0, 10055.0, 10063.0, 10071.0, 10074.0, 10072.0, 10071.0, 10078.0, 10088.0, 10089.0, 10090.0, 10091.0, 10084.0, 10065.0, 10048.0, 10045.0, 10059.0, 10059.0, 10048.0, 10053.0, 10062.0, 10064.0, 10054.0, 10037.0, 10027.0, 10028.0, 10045.0, 10068.0, 10079.0, 10072.0, 10062.0, 10054.0, 10057.0, 10073.0, 10082.0, 10069.0, 10052.0, 10033.0, 10019.0, 10012.0, 10033.0, 10061.0, 10073.0, 10077.0, 10082.0, 10074.0, 10057.0, 10046.0, 10046.0, 10059.0, 10078.0, 10097.0, 10091.0, 10075.0, 10057.0, 10039.0, 10037.0, 10052.0, 10068.0, 10085.0, 10096.0, 10088.0, 10066.0, 10048.0, 10039.0, 10044.0, 10048.0, 10058.0, 10058.0, 10057.0, 10062.0, 10065.0, 10074.0, 10072.0, 10050.0, 10044.0, 10043.0, 10053.0, 10069.0, 10071.0, 10058.0, 10047.0, 10030.0, 10017.0, 10009.0, 10002.0, 10003.0, 10002.0, 9994.0, 9983.0, 9974.0, 9974.0, 9983.0, 9999.0, 10015.0, 10019.0, 10012.0, 9999.0, 9986.0, 9999.0, 10018.0, 10042.0, 10046.0, 10032.0, 10027.0, 10024.0, 10023.0, 10035.0, 10051.0, 10053.0, 10045.0, 10044.0, 10044.0, 10055.0, 10077.0, 10082.0, 10080.0, 10071.0, 10055.0, 10047.0, 10052.0, 10061.0, 10062.0, 10063.0, 10054.0, 10043.0, 10033.0, 10027.0, 10041.0, 10050.0, 10052.0, 10045.0, 10044.0, 10042.0, 10034.0, 10039.0, 10033.0, 10027.0, 10025.0, 10010.0, 10004.0, 10002.0, 10014.0, 10039.0, 10052.0, 10061.0, 10055.0, 10040.0, 10034.0, 10024.0, 10026.0, 10036.0, 10051.0, 10043.0, 10029.0, 10011.0, 10009.0, 10015.0, 10018.0, 10025.0, 10034.0, 10028.0, 10028.0, 10044.0, 10073.0, 10060.0, 10026.0, 9982.0],
      "WindowWidth": [21545.0, 21484.0, 21467.0, 21389.0, 21303.0, 21227.0, 21210.0, 21246.0, 21292.0, 21301.0, 21295.0, 21277.0, 21270.0, 21295.0, 21321.0, 21337.0, 21329.0, 21335.0, 21360.0, 21401.0, 21410.0, 21407.0, 21383.0, 21381.0, 21388.0, 21376.0, 21341.0, 21332.0, 21336.0, 21351.0, 21373.0, 21383.0, 21398.0, 21378.0, 21355.0, 21354.0, 21372.0, 21393.0, 21402.0, 21395.0, 21392.0, 21408.0, 21430.0, 21433.0, 21437.0, 21439.0, 21420.0, 21375.0, 21336.0, 21330.0, 21360.0, 21360.0, 21338.0, 21348.0, 21368.0, 21371.0, 21350.0, 21310.0, 21287.0, 21290.0, 21331.0, 21381.0, 21408.0, 21392.0, 21369.0, 21350.0, 21361.0, 21397.0, 21418.0, 21389.0, 21347.0, 21303.0, 21266.0, 21254.0, 21300.0, 21366.0, 21395.0, 21406.0, 21415.0, 21394.0, 21356.0, 21331.0, 21331.0, 21360.0, 21404.0, 21446.0, 21436.0, 21399.0, 21358.0, 21314.0, 21311.0, 21343.0, 21378.0, 21417.0, 21445.0, 21425.0, 21375.0, 21333.0, 21314.0, 21324.0, 21338.0, 21361.0, 21362.0, 21358.0, 21366.0, 21377.0, 21397.0, 21390.0, 21343.0, 21324.0, 21322.0, 21348.0, 21385.0, 21392.0, 21367.0, 21338.0, 21296.0, 21261.0, 21241.0, 21230.0, 21235.0, 21230.0, 21210.0, 21185.0, 21163.0, 21167.0, 21189.0, 21224.0, 21258.0, 21266.0, 21249.0, 21217.0, 21190.0, 21221.0, 21267.0, 21320.0, 21331.0, 21302.0, 21285.0, 21276.0, 21275.0, 21304.0, 21340.0, 21346.0, 21327.0, 21323.0, 21325.0, 21352.0, 21400.0, 21413.0, 21407.0, 21383.0, 21349.0, 21332.0, 21341.0, 21364.0, 21365.0, 21369.0, 21350.0, 21323.0, 21297.0, 21287.0, 21318.0, 21337.0, 21342.0, 21327.0, 21324.0, 21317.0, 21299.0, 21305.0, 21293.0, 21282.0, 21276.0, 21244.0, 21228.0, 21224.0, 21254.0, 21310.0, 21345.0, 21362.0, 21351.0, 21318.0, 21300.0, 21277.0, 21283.0, 21309.0, 21340.0, 21322.0, 21288.0, 21250.0, 21243.0, 21257.0, 21266.0, 21283.0, 21302.0, 21289.0, 21287.0, 21329.0, 21389.0, 21358.0, 21278.0, 21179.0]
    },
    "slices": {}
  }
}