{
  "AcquisitionMatrixPE": 104,
  "AcquisitionNumber": 1,
  "AcquisitionTime": "14:17:5.715000",
  "BandwidthPerPixelPhaseEncode": 17.17,
  "BaseResolution": 104,
  "BodyPartExamined": "BRAIN",
  "CoilString": "HC1-7;NC1_2",
  "ConsistencyInfo": "N4_VE11C_LATEST_20160120",
  "ConversionSoftware": "dcm2niix",
  "ConversionSoftwareVersion": "v1.0.20190902",
  "DerivedVendorReportedEchoSpacing": 0.000560011,
  "DeviceSerialNumber": "167006",
  "DwellTime": 2.1e-06,
  "EchoTime": 0.037,
  "EchoTrainLength": 104,
  "EffectiveEchoSpacing": 0.000560011,
  "FlipAngle": 52,
  "ImageComments": "Unaliased_MB4_PE3_LB",
  "ImageOrientationPatientDICOM": [0.99961, 4.28591e-05, 0.0279099, 0.00767659, 0.961007, -0.276418],
  "ImageType": [
    "ORIGINAL",
    "PRIMARY",
    "M",
    "MB",
    "ND",
    "MOSAIC"
],
  "ImagingFrequency": 123.259,
  "InPlanePhaseEncodingDirectionDICOM": "COL",
  "InstitutionAddress": "Chemin_Queen-Mary_4565_Montreal_District_CA_H3W_1W5",
  "InstitutionName": "IUGM",
  "InstitutionalDepartmentName": "Department",
  "MRAcquisitionType": "2D",
  "MagneticFieldStrength": 3,
  "Manufacturer": "Siemens",
  "ManufacturersModelName": "Prisma_fit",
  "Modality": "MR",
  "MultibandAccelerationFactor": 4,
  "PartialFourier": 1,
  "PatientPosition": "HFS",
  "PercentPhaseFOV": 100,
  "PhaseEncodingDirection": "j",
  "PhaseEncodingSteps": 104,
  "PhaseResolution": 1,
  "PixelBandwidth": 2290,
  "ProcedureStepDescription": "localizers_retinotopy",
  "ProtocolName": "func_task-wedges",
  "PulseSequenceDetails": "%CustomerSeq%_cmrr_mbep2d_bold",
  "ReceiveCoilActiveElements": "HC1-7;NC1,2",
  "ReceiveCoilName": "HeadNeck_64",
  "ReconMatrixPE": 104,
  "RepetitionTime": 1.49,
  "SAR": 0.0367106,
  "ScanOptions": "FS",
  "ScanningSequence": "EP",
  "SequenceName": "epfid2d1_104",
  "SequenceVariant": "SK_SS",
  "SeriesDescription": "func_task-wedges",
  "SeriesNumber": 10,
  "ShimSetting": [634, -7212, -8797, 694, 58, 26, 50, -23],
  "SliceThickness": 2,
  "SliceTiming": [0, 0.7825, 0.0975, 0.8825, 0.195, 0.98, 0.2925, 1.0775, 0.3925, 1.175, 0.49, 1.2725, 0.5875, 1.3725, 0.685, 0, 0.7825, 0.0975, 0.8825, 0.195, 0.98, 0.2925, 1.0775, 0.3925, 1.175, 0.49, 1.2725, 0.5875, 1.3725, 0.685, 0, 0.7825, 0.0975, 0.8825, 0.195, 0.98, 0.2925, 1.0775, 0.3925, 1.175, 0.49, 1.2725, 0.5875, 1.3725, 0.685, 0, 0.7825, 0.0975, 0.8825, 0.195, 0.98, 0.2925, 1.0775, 0.3925, 1.175, 0.49, 1.2725, 0.5875, 1.3725, 0.685],
  "SoftwareVersions": "syngo_MR_E11",
  "SpacingBetweenSlices": 2,
  "StationName": "MRC35049",
  "TaskName": "wedges",
  "TotalReadoutTime": 0.0576811,
  "TxRefAmp": 220.342,
  "WipMemBlock": "deb5e537-aad6-42ae-9329-b7d4a17d81b1||Sequence: R016 ve11c/master r/e634e98; Dec 19 2017 11:00:25 by eja",
  "dcmmeta_affine": [
    [-1.999220848083496, 0.01535318698734045, 0.0536668635904789, 106.89583587646484],
    [-8.571821672376245e-05, 1.922013759613037, -0.5530490279197693, -73.45849609375],
    [0.05581975355744362, 0.5528358817100525, 1.921264410018921, -67.10161590576172],
    [0.0, 0.0, 0.0, 1.0]
],
  "dcmmeta_reorient_transform": [
    [0.0, -1.0, 0.0, 103.0],
    [1.0, 0.0, 0.0, 0.0],
    [0.0, 0.0, 1.0, 0.0],
    [0.0, 0.0, 0.0, 1.0]
],
  "dcmmeta_shape": [104, 104, 60, 202],
  "dcmmeta_slice_dim": 2,
  "dcmmeta_version": 0.6,
  "global": {
    "const": {
      "AcquisitionMatrix": [104, 0, 0, 104],
      "AngioFlag": "N",
      "BitsAllocated": 16,
      "BitsStored": 16,
      "BodyPartExamined": "BRAIN",
      "Columns": 832,
      "EchoNumbers": 1,
      "EchoTime": 37.0,
      "EchoTrainLength": 104,
      "FlipAngle": 52.0,
      "HighBit": 15,
      "ImageOrientationPatient": [0.99961044257603, 4.285910757e-05, 0.02790987739219, 0.00767659337598, 0.9610068640094, -0.2764179394341],
      "ImagePositionPatient": [-841.78217974727, -824.1531154219, 170.75435123455],
      "ImageType": [
        "ORIGINAL",
        "PRIMARY",
        "M",
        "MB",
        "ND",
        "MOSAIC"
],
      "ImagedNucleus": "1H",
      "ImagingFrequency": 123.25895,
      "InPlanePhaseEncodingDirection": "COL",
      "MRAcquisitionType": "2D",
      "MagneticFieldStrength": 3.0,
      "Manufacturer": "SIEMENS",
      "ManufacturerModelName": "Prisma_fit",
      "Modality": "MR",
      "NumberOfAverages": 1.0,
      "NumberOfPhaseEncodingSteps": 104,
      "PercentPhaseFieldOfView": 100.0,
      "PercentSampling": 100.0,
      "PerformedProcedureStepStartTime": "141146.954000",
      "PhotometricInterpretation": "MONOCHROME2",
      "PixelBandwidth": 2290.0,
      "PixelRepresentation": 0,
      "PixelSpacing": [2.0, 2.0],
      "ProtocolName": "func_task-wedges",
      "RepetitionTime": 1490.0,
      "Rows": 832,
      "SAR": 0.03671062427882,
      "SamplesPerPixel": 1,
      "ScanOptions": "FS",
      "ScanningSequence": "EP",
      "SequenceName": "epfid2d1_104",
      "SequenceVariant": [
        "SK",
        "SS"
],
      "SeriesDescription": "func_task-wedges",
      "SeriesNumber": 10,
      "SeriesTime": "141833.319000",
      "SliceLocation": -41.278511280283,
      "SliceThickness": 2.0,
      "SmallestImagePixelValue": 0,
      "SoftwareVersions": "syngo MR E11",
      "SpacingBetweenSlices": 2.0000000521286,
      "SpecificCharacterSet": "ISO_IR 100",
      "StudyID": "1",
      "StudyTime": "141146.879000",
      "TransmitCoilName": "Body",
      "VariableFlipAngleFlag": "N",
      "WindowCenterWidthExplanation": "Algo1",
      "dBdt": 0.0},
    "slices": {}
  },
  "time": {
    "samples": {
      "AcquisitionNumber": [1, 2, 3, 4, 5, 6, 7, 8, 9, 10, 11, 12, 13, 14, 15, 16, 17, 18, 19, 20, 21, 22, 23, 24, 25, 26, 27, 28, 29, 30, 31, 32, 33, 34, 35, 36, 37, 38, 39, 40, 41, 42, 43, 44, 45, 46, 47, 48, 49, 50, 51, 52, 53, 54, 55, 56, 57, 58, 59, 60, 61, 62, 63, 64, 65, 66, 67, 68, 69, 70, 71, 72, 73, 74, 75, 76, 77, 78, 79, 80, 81, 82, 83, 84, 85, 86, 87, 88, 89, 90, 91, 92, 93, 94, 95, 96, 97, 98, 99, 100, 101, 102, 103, 104, 105, 106, 107, 108, 109, 110, 111, 112, 113, 114, 115, 116, 117, 118, 119, 120, 121, 122, 123, 124, 125, 126, 127, 128, 129, 130, 131, 132, 133, 134, 135, 136, 137, 138, 139, 140, 141, 142, 143, 144, 145, 146, 147, 148, 149, 150, 151, 152, 153, 154, 155, 156, 157, 158, 159, 160, 161, 162, 163, 164, 165, 166, 167, 168, 169, 170, 171, 172, 173, 174, 175, 176, 177, 178, 179, 180, 181, 182, 183, 184, 185, 186, 187, 188, 189, 190, 191, 192, 193, 194, 195, 196, 197, 198, 199, 200, 201, 202],
      "AcquisitionTime": ["141705.715000", "141707.205000", "141708.695000", "141710.185000", "141711.675000", "141713.165000", "141714.655000", "141716.145000", "141717.635000", "141719.125000", "141720.615000", "141722.105000", "141723.595000", "141725.085000", "141726.575000", "141728.065000", "141729.555000", "141731.045000", "141732.535000", "141734.025000", "141735.515000", "141737.005000", "141738.495000", "141739.985000", "141741.475000", "141742.965000", "141744.455000", "141745.945000", "141747.435000", "141748.925000", "141750.415000", "141751.905000", "141753.395000", "141754.885000", "141756.375000", "141757.865000", "141759.355000", "141800.845000", "141802.335000", "141803.825000", "141805.315000", "141806.805000", "141808.295000", "141809.785000", "141811.275000", "141812.765000", "141814.255000", "141815.745000", "141817.235000", "141818.725000", "141820.215000", "141821.705000", "141823.195000", "141824.685000", "141826.175000", "141827.665000", "141829.155000", "141830.645000", "141832.135000", "141833.625000", "141835.115000", "141836.605000", "141838.095000", "141839.585000", "141841.075000", "141842.565000", "141844.055000", "141845.545000", "141847.035000", "141848.525000", "141850.015000", "141851.505000", "141852.995000", "141854.485000", "141855.975000", "141857.465000", "141858.955000", "141900.445000", "141901.935000", "141903.425000", "141904.915000", "141906.405000", "141907.895000", "141909.385000", "141910.875000", "141912.365000", "141913.855000", "141915.345000", "141916.835000", "141918.325000", "141919.815000", "141921.305000", "141922.795000", "141924.285000", "141925.775000", "141927.265000", "141928.755000", "141930.245000", "141931.735000", "141933.225000", "141934.715000", "141936.205000", "141937.695000", "141939.185000", "141940.675000", "141942.165000", "141943.655000", "141945.145000", "141946.635000", "141948.125000", "141949.615000", "141951.105000", "141952.595000", "141954.085000", "141955.575000", "141957.065000", "141958.555000", "142000.045000", "142001.535000", "142003.025000", "142004.515000", "142006.005000", "142007.495000", "142008.985000", "142010.475000", "142011.965000", "142013.455000", "142014.945000", "142016.435000", "142017.925000", "142019.415000", "142020.905000", "142022.395000", "142023.885000", "142025.375000", "142026.865000", "142028.355000", "142029.845000", "142031.335000", "142032.825000", "142034.315000", "142035.805000", "142037.295000", "142038.785000", "142040.275000", "142041.765000", "142043.255000", "142044.745000", "142046.235000", "142047.725000", "142049.215000", "142050.705000", "142052.195000", "142053.685000", "142055.175000", "142056.665000", "142058.155000", "142059.645000", "142101.135000", "142102.625000", "142104.115000", "142105.605000", "142107.095000", "142108.585000", "142110.075000", "142111.565000", "142113.055000", "142114.545000", "142116.035000", "142117.525000", "142119.015000", "142120.505000", "142121.995000", "142123.485000", "142124.975000", "142126.465000", "142127.955000", "142129.445000", "142130.935000", "142132.425000", "142133.915000", "142135.405000", "142136.895000", "142138.385000", "142139.875000", "142141.365000", "142142.855000", "142144.345000", "142145.835000", "142147.325000", "142148.815000", "142150.305000", "142151.795000", "142153.285000", "142154.775000", "142156.265000", "142157.755000", "142159.245000", "142200.735000", "142202.225000", "142203.715000", "142205.205000"],
      "ContentTime": ["141833.322000", "141833.326000", "141833.329000", "141833.332000", "141833.336000", "141833.339000", "141833.343000", "141833.346000", "141833.356000", "141833.360000", "141833.363000", "141833.367000", "141833.370000", "141833.374000", "141833.377000", "141833.380000", "141833.384000", "141833.388000", "141833.391000", "141833.395000", "141833.399000", "141833.402000", "141833.406000", "141833.409000", "141833.413000", "141833.416000", "141833.419000", "141833.423000", "141833.426000", "141833.430000", "141853.154000", "141853.158000", "141853.161000", "141853.165000", "141853.168000", "141853.172000", "141853.175000", "141853.179000", "141853.182000", "141853.186000", "141853.189000", "141853.192000", "141853.196000", "141853.199000", "141853.203000", "141853.206000", "141853.210000", "141853.213000", "141853.216000", "141853.220000", "141913.155000", "141913.158000", "141913.162000", "141913.165000", "141913.169000", "141913.173000", "141913.177000", "141913.181000", "141913.184000", "141913.189000", "141913.192000", "141913.196000", "141913.199000", "141913.203000", "141913.206000", "141913.210000", "141913.213000", "141913.217000", "141913.220000", "141913.224000", "141933.154000", "141933.158000", "141933.162000", "141933.165000", "141933.168000", "141933.172000", "141933.176000", "141933.179000", "141933.183000", "141933.186000", "141933.190000", "141933.193000", "141933.197000", "141933.200000", "141933.204000", "141933.207000", "141933.211000", "141933.214000", "141933.218000", "141933.221000", "141933.224000", "141953.153000", "141953.157000", "141953.160000", "141953.164000", "141953.167000", "141953.170000", "141953.174000", "141953.177000", "141953.181000", "141953.184000", "141953.188000", "141953.191000", "141953.195000", "141953.198000", "141953.202000", "141953.205000", "141953.208000", "141953.212000", "141953.215000", "141953.219000", "142033.153000", "142033.157000", "142033.161000", "142033.164000", "142033.168000", "142033.171000", "142033.174000", "142033.178000", "142033.181000", "142033.185000", "142033.188000", "142033.191000", "142033.195000", "142033.198000", "142033.202000", "142033.205000", "142033.208000", "142033.212000", "142033.215000", "142033.219000", "142033.222000", "142033.225000", "142033.229000", "142033.232000", "142033.236000", "142033.239000", "142033.242000", "142113.154000", "142113.158000", "142113.171000", "142113.185000", "142113.188000", "142113.192000", "142113.195000", "142113.199000", "142113.202000", "142113.205000", "142113.209000", "142113.212000", "142113.216000", "142113.219000", "142113.222000", "142113.226000", "142113.229000", "142113.232000", "142113.236000", "142113.239000", "142113.243000", "142113.246000", "142113.249000", "142113.253000", "142113.256000", "142113.260000", "142113.263000", "142153.154000", "142153.158000", "142153.162000", "142153.165000", "142153.169000", "142153.172000", "142153.175000", "142153.179000", "142153.182000", "142153.185000", "142153.189000", "142153.208000", "142153.211000", "142153.215000", "142153.218000", "142153.222000", "142153.225000", "142153.229000", "142153.232000", "142153.235000", "142153.239000", "142153.242000", "142153.246000", "142153.249000", "142153.252000", "142153.256000", "142153.259000", "142207.586000", "142207.590000", "142207.593000", "142207.597000", "142207.600000", "142207.604000", "142207.608000", "142207.611000", "142207.615000", "142207.618000"],
      "InstanceCreationTime": ["141833.322000", "141833.326000", "141833.329000", "141833.332000", "141833.336000", "141833.339000", "141833.343000", "141833.346000", "141833.356000", "141833.360000", "141833.363000", "141833.367000", "141833.370000", "141833.374000", "141833.377000", "141833.380000", "141833.384000", "141833.388000", "141833.391000", "141833.395000", "141833.399000", "141833.402000", "141833.406000", "141833.409000", "141833.413000", "141833.416000", "141833.419000", "141833.423000", "141833.426000", "141833.430000", "141853.154000", "141853.158000", "141853.161000", "141853.165000", "141853.168000", "141853.172000", "141853.175000", "141853.179000", "141853.182000", "141853.186000", "141853.189000", "141853.192000", "141853.196000", "141853.199000", "141853.203000", "141853.206000", "141853.210000", "141853.213000", "141853.216000", "141853.220000", "141913.155000", "141913.158000", "141913.162000", "141913.165000", "141913.169000", "141913.173000", "141913.177000", "141913.181000", "141913.184000", "141913.189000", "141913.192000", "141913.196000", "141913.199000", "141913.203000", "141913.206000", "141913.210000", "141913.213000", "141913.217000", "141913.220000", "141913.224000", "141933.154000", "141933.158000", "141933.162000", "141933.165000", "141933.168000", "141933.172000", "141933.176000", "141933.179000", "141933.183000", "141933.186000", "141933.190000", "141933.193000", "141933.197000", "141933.200000", "141933.204000", "141933.207000", "141933.211000", "141933.214000", "141933.218000", "141933.221000", "141933.224000", "141953.153000", "141953.157000", "141953.160000", "141953.164000", "141953.167000", "141953.170000", "141953.174000", "141953.177000", "141953.181000", "141953.184000", "141953.188000", "141953.191000", "141953.195000", "141953.198000", "141953.202000", "141953.205000", "141953.208000", "141953.212000", "141953.215000", "141953.219000", "142033.153000", "142033.157000", "142033.161000", "142033.164000", "142033.168000", "142033.171000", "142033.174000", "142033.178000", "142033.181000", "142033.185000", "142033.188000", "142033.191000", "142033.195000", "142033.198000", "142033.202000", "142033.205000", "142033.208000", "142033.212000", "142033.215000", "142033.219000", "142033.222000", "142033.225000", "142033.229000", "142033.232000", "142033.236000", "142033.239000", "142033.242000", "142113.154000", "142113.158000", "142113.171000", "142113.185000", "142113.188000", "142113.192000", "142113.195000", "142113.199000", "142113.202000", "142113.205000", "142113.209000", "142113.212000", "142113.216000", "142113.219000", "142113.222000", "142113.226000", "142113.229000", "142113.232000", "142113.236000", "142113.239000", "142113.243000", "142113.246000", "142113.249000", "142113.253000", "142113.256000", "142113.260000", "142113.263000", "142153.154000", "142153.158000", "142153.162000", "142153.165000", "142153.169000", "142153.172000", "142153.175000", "142153.179000", "142153.182000", "142153.185000", "142153.189000", "142153.208000", "142153.211000", "142153.215000", "142153.218000", "142153.222000", "142153.225000", "142153.229000", "142153.232000", "142153.235000", "142153.239000", "142153.242000", "142153.246000", "142153.249000", "142153.252000", "142153.256000", "142153.259000", "142207.586000", "142207.590000", "142207.593000", "142207.597000", "142207.600000", "142207.604000", "142207.608000", "142207.611000", "142207.615000", "142207.618000"],
      "InstanceNumber": [1, 2, 3, 4, 5, 6, 7, 8, 9, 10, 11, 12, 13, 14, 15, 16, 17, 18, 19, 20, 21, 22, 23, 24, 25, 26, 27, 28, 29, 30, 31, 32, 33, 34, 35, 36, 37, 38, 39, 40, 41, 42, 43, 44, 45, 46, 47, 48, 49, 50, 51, 52, 53, 54, 55, 56, 57, 58, 59, 60, 61, 62, 63, 64, 65, 66, 67, 68, 69, 70, 71, 72, 73, 74, 75, 76, 77, 78, 79, 80, 81, 82, 83, 84, 85, 86, 87, 88, 89, 90, 91, 92, 93, 94, 95, 96, 97, 98, 99, 100, 101, 102, 103, 104, 105, 106, 107, 108, 109, 110, 111, 112, 113, 114, 115, 116, 117, 118, 119, 120, 121, 122, 123, 124, 125, 126, 127, 128, 129, 130, 131, 132, 133, 134, 135, 136, 137, 138, 139, 140, 141, 142, 143, 144, 145, 146, 147, 148, 149, 150, 151, 152, 153, 154, 155, 156, 157, 158, 159, 160, 161, 162, 163, 164, 165, 166, 167, 168, 169, 170, 171, 172, 173, 174, 175, 176, 177, 178, 179, 180, 181, 182, 183, 184, 185, 186, 187, 188, 189, 190, 191, 192, 193, 194, 195, 196, 197, 198, 199, 200, 201, 202],
      "LargestImagePixelValue": [39880, 38820, 37642, 37016, 36907, 37104, 36427, 36718, 36510, 36490, 36643, 36507, 36476, 36663, 36544, 36599, 36593, 36262, 36208, 36478, 36654, 36591, 36572, 36678, 36300, 36979, 36731, 37075, 36498, 36894, 36815, 36918, 36555, 36804, 36623, 36566, 35979, 36654, 36358, 36464, 36475, 36566, 36408, 36721, 36388, 36694, 36370, 36798, 36303, 36730, 36370, 36247, 36205, 36231, 36605, 36369, 36587, 36407, 36618, 36912, 36707, 36538, 36086, 36361, 36522, 36585, 36327, 36278, 36182, 36361, 36678, 36327, 36095, 36784, 36161, 36745, 36139, 36755, 36720, 36376, 36146, 36624, 36356, 36771, 36396, 36225, 36053, 36918, 36566, 36368, 36187, 36426, 36336, 36580, 36243, 36004, 36343, 35877, 36592, 36356, 36455, 36446, 36837, 37177, 36485, 36476, 36351, 36288, 37043, 36562, 36688, 36916, 36765, 36303, 36849, 36781, 36932, 36588, 37412, 36391, 36595, 36535, 37183, 36633, 36613, 36272, 36900, 36572, 36315, 36565, 37174, 36836, 36850, 36332, 36548, 36320, 36486, 36209, 36380, 36303, 36569, 36772, 36393, 36158, 36247, 36127, 36481, 36118, 36739, 36373, 36071, 36697, 36546, 36779, 36578, 36537, 36596, 36465, 36145, 36366, 36338, 36297, 36479, 36104, 36150, 36204, 36839, 36306, 36443, 36428, 36455, 35957, 36790, 36494, 36464, 36208, 36443, 36779, 36769, 36600, 36313, 36248, 36607, 36624, 36558, 36945, 37027, 36847, 37031, 37313, 37538, 36523, 36902, 37776, 37466, 37974, 37758, 37647, 37670, 38181, 37386, 37218],
      "WindowCenter": [10093.0, 10064.0, 10059.0, 10060.0, 10053.0, 10045.0, 10044.0, 10060.0, 10064.0, 10072.0, 10071.0, 10062.0, 10070.0, 10079.0, 10088.0, 10088.0, 10090.0, 10098.0, 10100.0, 10107.0, 10106.0, 10091.0, 10088.0, 10103.0, 10110.0, 10117.0, 10107.0, 10105.0, 10107.0, 10114.0, 10113.0, 10113.0, 10106.0, 10103.0, 10094.0, 10095.0, 10091.0, 10097.0, 10087.0, 10073.0, 10070.0, 10065.0, 10063.0, 10075.0, 10081.0, 10090.0, 10082.0, 10070.0, 10054.0, 10059.0, 10069.0, 10081.0, 10091.0, 10091.0, 10073.0, 10064.0, 10061.0, 10071.0, 10087.0, 10095.0, 10090.0, 10092.0, 10101.0, 10111.0, 10126.0, 10128.0, 10119.0, 10088.0, 10067.0, 10063.0, 10077.0, 10089.0, 10101.0, 10099.0, 10084.0, 10072.0, 10070.0, 10078.0, 10086.0, 10074.0, 10067.0, 10071.0, 10072.0, 10069.0, 10064.0, 10065.0, 10065.0, 10068.0, 10063.0, 10071.0, 10081.0, 10083.0, 10083.0, 10082.0, 10073.0, 10073.0, 10088.0, 10084.0, 10072.0, 10054.0, 10044.0, 10051.0, 10059.0, 10069.0, 10071.0, 10079.0, 10071.0, 10055.0, 10049.0, 10045.0, 10064.0, 10069.0, 10070.0, 10057.0, 10046.0, 10044.0, 10052.0, 10056.0, 10065.0, 10039.0, 10035.0, 10043.0, 10065.0, 10078.0, 10079.0, 10074.0, 10086.0, 10080.0, 10058.0, 10054.0, 10052.0, 10061.0, 10070.0, 10081.0, 10083.0, 10081.0, 10073.0, 10060.0, 10058.0, 10057.0, 10061.0, 10061.0, 10062.0, 10064.0, 10063.0, 10063.0, 10063.0, 10061.0, 10059.0, 10053.0, 10053.0, 10051.0, 10036.0, 10041.0, 10050.0, 10053.0, 10054.0, 10062.0, 10056.0, 10062.0, 10055.0, 10048.0, 10051.0, 10052.0, 10061.0, 10068.0, 10067.0, 10053.0, 10053.0, 10060.0, 10060.0, 10056.0, 10052.0, 10034.0, 10024.0, 10033.0, 10066.0, 10087.0, 10087.0, 10070.0, 10048.0, 10045.0, 10044.0, 10043.0, 10043.0, 10053.0, 10048.0, 10038.0, 10042.0, 10065.0, 10057.0, 10042.0, 10028.0, 10036.0, 10033.0, 10045.0, 10032.0, 10015.0, 10012.0, 10024.0, 10039.0, 10051.0],
      "WindowWidth": [21484.0, 21401.0, 21381.0, 21378.0, 21357.0, 21336.0, 21336.0, 21370.0, 21381.0, 21400.0, 21395.0, 21375.0, 21394.0, 21413.0, 21436.0, 21435.0, 21442.0, 21459.0, 21467.0, 21480.0, 21477.0, 21443.0, 21436.0, 21469.0, 21491.0, 21505.0, 21480.0, 21474.0, 21482.0, 21494.0, 21492.0, 21491.0, 21477.0, 21468.0, 21447.0, 21448.0, 21445.0, 21455.0, 21430.0, 21399.0, 21391.0, 21381.0, 21377.0, 21401.0, 21419.0, 21441.0, 21422.0, 21393.0, 21358.0, 21366.0, 21390.0, 21422.0, 21445.0, 21442.0, 21399.0, 21376.0, 21369.0, 21394.0, 21431.0, 21449.0, 21440.0, 21446.0, 21467.0, 21492.0, 21525.0, 21528.0, 21505.0, 21437.0, 21389.0, 21377.0, 21409.0, 21438.0, 21466.0, 21458.0, 21426.0, 21394.0, 21390.0, 21407.0, 21426.0, 21401.0, 21385.0, 21394.0, 21394.0, 21387.0, 21378.0, 21385.0, 21382.0, 21385.0, 21378.0, 21397.0, 21421.0, 21426.0, 21424.0, 21420.0, 21401.0, 21401.0, 21434.0, 21428.0, 21396.0, 21355.0, 21331.0, 21346.0, 21364.0, 21388.0, 21396.0, 21412.0, 21394.0, 21356.0, 21340.0, 21335.0, 21374.0, 21388.0, 21391.0, 21364.0, 21340.0, 21336.0, 21353.0, 21365.0, 21377.0, 21325.0, 21312.0, 21331.0, 21379.0, 21409.0, 21412.0, 21402.0, 21424.0, 21412.0, 21366.0, 21352.0, 21349.0, 21370.0, 21393.0, 21420.0, 21425.0, 21420.0, 21401.0, 21375.0, 21369.0, 21366.0, 21371.0, 21371.0, 21377.0, 21382.0, 21379.0, 21379.0, 21377.0, 21368.0, 21362.0, 21352.0, 21352.0, 21345.0, 21312.0, 21324.0, 21346.0, 21355.0, 21358.0, 21375.0, 21366.0, 21377.0, 21361.0, 21346.0, 21347.0, 21353.0, 21374.0, 21387.0, 21382.0, 21353.0, 21352.0, 21367.0, 21368.0, 21362.0, 21350.0, 21308.0, 21285.0, 21310.0, 21385.0, 21434.0, 21432.0, 21395.0, 21346.0, 21339.0, 21337.0, 21332.0, 21331.0, 21349.0, 21337.0, 21316.0, 21328.0, 21377.0, 21359.0, 21328.0, 21294.0, 21308.0, 21305.0, 21330.0, 21305.0, 21268.0, 21259.0, 21286.0, 21326.0, 21354.0]
    },
    "slices": {}
  }
}