{
  "AcquisitionMatrixPE": 104,
  "AcquisitionNumber": 1,
  "AcquisitionTime": "14:23:29.050000",
  "BandwidthPerPixelPhaseEncode": 17.17,
  "BaseResolution": 104,
  "BodyPartExamined": "BRAIN",
  "CoilString": "HC1-7;NC1_2",
  "ConsistencyInfo": "N4_VE11C_LATEST_20160120",
  "ConversionSoftware": "dcm2niix",
  "ConversionSoftwareVersion": "v1.0.20190902",
  "DerivedVendorReportedEchoSpacing": 0.000560011,
  "DeviceSerialNumber": "167006",
  "DwellTime": 2.1e-06,
  "EchoTime": 0.037,
  "EchoTrainLength": 104,
  "EffectiveEchoSpacing": 0.000560011,
  "FlipAngle": 52,
  "ImageComments": "Unaliased_MB4_PE3_LB",
  "ImageOrientationPatientDICOM": [0.99961, 4.28591e-05, 0.0279099, 0.00767659, 0.961007, -0.276418],
  "ImageType": [
    "ORIGINAL",
    "PRIMARY",
    "P",
    "MB",
    "ND",
    "MOSAIC"
],
  "ImagingFrequency": 123.259,
  "InPlanePhaseEncodingDirectionDICOM": "COL",
  "InstitutionAddress": "Chemin_Queen-Mary_4565_Montreal_District_CA_H3W_1W5",
  "InstitutionName": "IUGM",
  "InstitutionalDepartmentName": "Department",
  "MRAcquisitionType": "2D",
  "MagneticFieldStrength": 3,
  "Manufacturer": "Siemens",
  "ManufacturersModelName": "Prisma_fit",
  "Modality": "MR",
  "MultibandAccelerationFactor": 4,
  "PartialFourier": 1,
  "PatientPosition": "HFS",
  "PercentPhaseFOV": 100,
  "PhaseEncodingDirection": "j",
  "PhaseEncodingSteps": 104,
  "PhaseResolution": 1,
  "PixelBandwidth": 2290,
  "ProcedureStepDescription": "localizers_retinotopy",
  "ProtocolName": "func_task-rings",
  "PulseSequenceDetails": "%CustomerSeq%_cmrr_mbep2d_bold",
  "ReceiveCoilActiveElements": "HC1-7;NC1,2",
  "ReceiveCoilName": "HeadNeck_64",
  "ReconMatrixPE": 104,
  "RepetitionTime": 1.49,
  "SAR": 0.0367106,
  "ScanOptions": "FS",
  "ScanningSequence": "EP",
  "SequenceName": "epfid2d1_104",
  "SequenceVariant": "SK_SS",
  "SeriesDescription": "func_task-rings",
  "SeriesNumber": 14,
  "ShimSetting": [634, -7212, -8797, 694, 58, 26, 50, -23],
  "SliceThickness": 2,
  "SliceTiming": [0, 0.785, 0.0975, 0.8825, 0.195, 0.98, 0.295, 1.0775, 0.3925, 1.175, 0.49, 1.275, 0.5875, 1.3725, 0.685, 0, 0.785, 0.0975, 0.8825, 0.195, 0.98, 0.295, 1.0775, 0.3925, 1.175, 0.49, 1.275, 0.5875, 1.3725, 0.685, 0, 0.785, 0.0975, 0.8825, 0.195, 0.98, 0.295, 1.0775, 0.3925, 1.175, 0.49, 1.275, 0.5875, 1.3725, 0.685, 0, 0.785, 0.0975, 0.8825, 0.195, 0.98, 0.295, 1.0775, 0.3925, 1.175, 0.49, 1.275, 0.5875, 1.3725, 0.685],
  "SoftwareVersions": "syngo_MR_E11",
  "SpacingBetweenSlices": 2,
  "StationName": "MRC35049",
  "TaskName": "rings",
  "TotalReadoutTime": 0.0576811,
  "TxRefAmp": 220.342,
  "WipMemBlock": "a29d0190-4657-4dc0-806a-33bdfd9c318c||Sequence: R016 ve11c/master r/e634e98; Dec 19 2017 11:00:25 by eja",
  "dcmmeta_affine": [
    [-1.999220848083496, 0.01535318698734045, 0.0536668635904789, 106.89583587646484],
    [-8.571821672376245e-05, 1.922013759613037, -0.5530490279197693, -73.45849609375],
    [0.05581975355744362, 0.5528358817100525, 1.921264410018921, -67.10161590576172],
    [0.0, 0.0, 0.0, 1.0]
],
  "dcmmeta_reorient_transform": [
    [0.0, -1.0, 0.0, 103.0],
    [1.0, 0.0, 0.0, 0.0],
    [0.0, 0.0, 1.0, 0.0],
    [0.0, 0.0, 0.0, 1.0]
],
  "dcmmeta_shape": [104, 104, 60, 202],
  "dcmmeta_slice_dim": 2,
  "dcmmeta_version": 0.6,
  "global": {
    "const": {
      "AcquisitionMatrix": [104, 0, 0, 104],
      "AngioFlag": "N",
      "BitsAllocated": 16,
      "BitsStored": 16,
      "BodyPartExamined": "BRAIN",
      "Columns": 832,
      "EchoNumbers": 1,
      "EchoTime": 37.0,
      "EchoTrainLength": 104,
      "FlipAngle": 52.0,
      "HighBit": 15,
      "ImageOrientationPatient": [0.99961044257603, 4.285910757e-05, 0.02790987739219, 0.00767659337598, 0.9610068640094, -0.2764179394341],
      "ImagePositionPatient": [-841.78217974727, -824.1531154219, 170.75435123455],
      "ImageType": [
        "ORIGINAL",
        "PRIMARY",
        "P",
        "MB",
        "ND",
        "MOSAIC"
],
      "ImagedNucleus": "1H",
      "ImagingFrequency": 123.25895,
      "InPlanePhaseEncodingDirection": "COL",
      "LargestImagePixelValue": 4095,
      "MRAcquisitionType": "2D",
      "MagneticFieldStrength": 3.0,
      "Manufacturer": "SIEMENS",
      "ManufacturerModelName": "Prisma_fit",
      "Modality": "MR",
      "NumberOfAverages": 1.0,
      "NumberOfPhaseEncodingSteps": 104,
      "PercentPhaseFieldOfView": 100.0,
      "PercentSampling": 100.0,
      "PerformedProcedureStepStartTime": "141146.954000",
      "PhotometricInterpretation": "MONOCHROME2",
      "PixelBandwidth": 2290.0,
      "PixelRepresentation": 0,
      "PixelSpacing": [2.0, 2.0],
      "ProtocolName": "func_task-rings",
      "RepetitionTime": 1490.0,
      "RescaleIntercept": -4096.0,
      "RescaleSlope": 2.0,
      "RescaleType": "US",
      "Rows": 832,
      "SAR": 0.03671062427882,
      "SamplesPerPixel": 1,
      "ScanOptions": "FS",
      "ScanningSequence": "EP",
      "SequenceName": "epfid2d1_104",
      "SequenceVariant": [
        "SK",
        "SS"
],
      "SeriesDescription": "func_task-rings",
      "SeriesNumber": 14,
      "SeriesTime": "142440.812000",
      "SliceLocation": -41.278511280283,
      "SliceThickness": 2.0,
      "SmallestImagePixelValue": 0,
      "SoftwareVersions": "syngo MR E11",
      "SpacingBetweenSlices": 2.0000000521286,
      "SpecificCharacterSet": "ISO_IR 100",
      "StudyID": "1",
      "StudyTime": "141146.879000",
      "TransmitCoilName": "Body",
      "VariableFlipAngleFlag": "N",
      "WindowCenterWidthExplanation": "Algo1",
      "dBdt": 0.0},
    "slices": {}
  },
  "time": {
    "samples": {
      "AcquisitionNumber": [1, 2, 3, 4, 5, 6, 7, 8, 9, 10, 11, 12, 13, 14, 15, 16, 17, 18, 19, 20, 21, 22, 23, 24, 25, 26, 27, 28, 29, 30, 31, 32, 33, 34, 35, 36, 37, 38, 39, 40, 41, 42, 43, 44, 45, 46, 47, 48, 49, 50, 51, 52, 53, 54, 55, 56, 57, 58, 59, 60, 61, 62, 63, 64, 65, 66, 67, 68, 69, 70, 71, 72, 73, 74, 75, 76, 77, 78, 79, 80, 81, 82, 83, 84, 85, 86, 87, 88, 89, 90, 91, 92, 93, 94, 95, 96, 97, 98, 99, 100, 101, 102, 103, 104, 105, 106, 107, 108, 109, 110, 111, 112, 113, 114, 115, 116, 117, 118, 119, 120, 121, 122, 123, 124, 125, 126, 127, 128, 129, 130, 131, 132, 133, 134, 135, 136, 137, 138, 139, 140, 141, 142, 143, 144, 145, 146, 147, 148, 149, 150, 151, 152, 153, 154, 155, 156, 157, 158, 159, 160, 161, 162, 163, 164, 165, 166, 167, 168, 169, 170, 171, 172, 173, 174, 175, 176, 177, 178, 179, 180, 181, 182, 183, 184, 185, 186, 187, 188, 189, 190, 191, 192, 193, 194, 195, 196, 197, 198, 199, 200, 201, 202],
      "AcquisitionTime": ["142329.050000", "142330.540000", "142332.030000", "142333.520000", "142335.010000", "142336.500000", "142337.990000", "142339.480000", "142340.970000", "142342.460000", "142343.950000", "142345.440000", "142346.930000", "142348.420000", "142349.910000", "142351.400000", "142352.890000", "142354.380000", "142355.870000", "142357.360000", "142358.850000", "142400.340000", "142401.830000", "142403.320000", "142404.810000", "142406.300000", "142407.790000", "142409.280000", "142410.770000", "142412.260000", "142413.750000", "142415.240000", "142416.730000", "142418.220000", "142419.710000", "142421.200000", "142422.690000", "142424.180000", "142425.670000", "142427.160000", "142428.650000", "142430.140000", "142431.630000", "142433.120000", "142434.610000", "142436.100000", "142437.590000", "142439.080000", "142440.570000", "142442.060000", "142443.550000", "142445.040000", "142446.530000", "142448.020000", "142449.510000", "142451.000000", "142452.490000", "142453.980000", "142455.470000", "142456.960000", "142458.450000", "142459.940000", "142501.430000", "142502.920000", "142504.410000", "142505.900000", "142507.390000", "142508.880000", "142510.370000", "142511.860000", "142513.350000", "142514.840000", "142516.330000", "142517.820000", "142519.310000", "142520.800000", "142522.290000", "142523.780000", "142525.270000", "142526.760000", "142528.250000", "142529.740000", "142531.230000", "142532.720000", "142534.210000", "142535.700000", "142537.190000", "142538.680000", "142540.170000", "142541.660000", "142543.150000", "142544.640000", "142546.130000", "142547.620000", "142549.110000", "142550.600000", "142552.090000", "142553.580000", "142555.070000", "142556.560000", "142558.050000", "142559.540000", "142601.030000", "142602.520000", "142604.010000", "142605.500000", "142606.990000", "142608.480000", "142609.970000", "142611.460000", "142612.950000", "142614.440000", "142615.930000", "142617.420000", "142618.910000", "142620.400000", "142621.890000", "142623.380000", "142624.870000", "142626.360000", "142627.850000", "142629.340000", "142630.830000", "142632.320000", "142633.810000", "142635.300000", "142636.790000", "142638.280000", "142639.770000", "142641.260000", "142642.750000", "142644.240000", "142645.730000", "142647.220000", "142648.710000", "142650.200000", "142651.690000", "142653.180000", "142654.670000", "142656.160000", "142657.650000", "142659.140000", "142700.630000", "142702.120000", "142703.610000", "142705.100000", "142706.590000", "142708.080000", "142709.570000", "142711.060000", "142712.550000", "142714.040000", "142715.530000", "142717.020000", "142718.510000", "142720.000000", "142721.490000", "142722.980000", "142724.470000", "142725.960000", "142727.450000", "142728.940000", "142730.430000", "142731.920000", "142733.410000", "142734.900000", "142736.390000", "142737.880000", "142739.370000", "142740.860000", "142742.350000", "142743.840000", "142745.330000", "142746.820000", "142748.310000", "142749.800000", "142751.290000", "142752.780000", "142754.270000", "142755.760000", "142757.250000", "142758.740000", "142800.230000", "142801.720000", "142803.210000", "142804.700000", "142806.190000", "142807.680000", "142809.170000", "142810.660000", "142812.150000", "142813.640000", "142815.130000", "142816.620000", "142818.110000", "142819.600000", "142821.090000", "142822.580000", "142824.070000", "142825.560000", "142827.050000", "142828.540000"],
      "ContentTime": ["142440.814000", "142440.816000", "142440.819000", "142440.822000", "142440.824000", "142440.827000", "142440.829000", "142440.832000", "142440.834000", "142440.837000", "142440.839000", "142440.842000", "142440.844000", "142440.847000", "142440.850000", "142440.854000", "142440.857000", "142500.795000", "142500.798000", "142500.801000", "142500.803000", "142500.806000", "142500.808000", "142500.811000", "142500.814000", "142500.816000", "142500.819000", "142500.821000", "142500.824000", "142500.826000", "142500.829000", "142500.832000", "142500.834000", "142500.837000", "142500.839000", "142500.842000", "142500.845000", "142520.777000", "142520.779000", "142520.782000", "142520.785000", "142520.787000", "142520.790000", "142520.792000", "142520.795000", "142520.797000", "142520.800000", "142520.803000", "142520.805000", "142520.808000", "142520.810000", "142520.813000", "142520.815000", "142520.826000", "142520.828000", "142520.831000", "142520.833000", "142520.836000", "142540.796000", "142540.799000", "142540.801000", "142540.804000", "142540.807000", "142540.809000", "142540.812000", "142540.814000", "142540.817000", "142540.819000", "142540.822000", "142540.825000", "142540.828000", "142540.830000", "142540.833000", "142540.835000", "142540.838000", "142540.840000", "142540.843000", "142540.846000", "142600.792000", "142600.795000", "142600.798000", "142600.800000", "142600.803000", "142600.805000", "142600.808000", "142600.810000", "142600.813000", "142600.815000", "142600.818000", "142600.821000", "142600.823000", "142600.826000", "142600.828000", "142600.831000", "142600.833000", "142600.836000", "142600.838000", "142600.841000", "142600.844000", "142640.817000", "142640.820000", "142640.823000", "142640.825000", "142640.828000", "142640.830000", "142640.833000", "142640.835000", "142640.838000", "142640.840000", "142640.843000", "142640.845000", "142640.848000", "142640.851000", "142640.853000", "142640.856000", "142640.858000", "142640.861000", "142640.863000", "142640.866000", "142640.869000", "142640.871000", "142640.874000", "142640.876000", "142640.886000", "142640.889000", "142640.891000", "142640.894000", "142640.896000", "142720.819000", "142720.822000", "142720.825000", "142720.827000", "142720.830000", "142720.832000", "142720.835000", "142720.838000", "142720.840000", "142720.843000", "142720.845000", "142720.848000", "142720.851000", "142720.853000", "142720.856000", "142720.858000", "142720.861000", "142720.863000", "142720.866000", "142720.869000", "142720.871000", "142720.874000", "142720.876000", "142720.879000", "142720.881000", "142720.884000", "142800.803000", "142800.806000", "142800.809000", "142800.811000", "142800.814000", "142800.816000", "142800.819000", "142800.822000", "142800.824000", "142800.828000", "142800.831000", "142800.833000", "142800.836000", "142800.839000", "142800.841000", "142800.844000", "142800.847000", "142800.849000", "142800.852000", "142800.854000", "142800.857000", "142800.859000", "142800.862000", "142800.865000", "142800.867000", "142800.870000", "142800.872000", "142830.944000", "142830.947000", "142830.950000", "142830.952000", "142830.955000", "142830.957000", "142830.960000", "142830.963000", "142830.966000", "142830.968000", "142830.971000", "142830.974000", "142830.976000", "142830.979000", "142830.982000", "142830.985000", "142830.987000", "142830.990000", "142830.993000", "142830.996000", "142831.000000"],
      "InstanceCreationTime": ["142440.814000", "142440.816000", "142440.819000", "142440.822000", "142440.824000", "142440.827000", "142440.829000", "142440.832000", "142440.834000", "142440.837000", "142440.839000", "142440.842000", "142440.844000", "142440.847000", "142440.850000", "142440.854000", "142440.857000", "142500.795000", "142500.798000", "142500.801000", "142500.803000", "142500.806000", "142500.808000", "142500.811000", "142500.814000", "142500.816000", "142500.819000", "142500.821000", "142500.824000", "142500.826000", "142500.829000", "142500.832000", "142500.834000", "142500.837000", "142500.839000", "142500.842000", "142500.845000", "142520.777000", "142520.779000", "142520.782000", "142520.785000", "142520.787000", "142520.790000", "142520.792000", "142520.795000", "142520.797000", "142520.800000", "142520.803000", "142520.805000", "142520.808000", "142520.810000", "142520.813000", "142520.815000", "142520.826000", "142520.828000", "142520.831000", "142520.833000", "142520.836000", "142540.796000", "142540.799000", "142540.801000", "142540.804000", "142540.807000", "142540.809000", "142540.812000", "142540.814000", "142540.817000", "142540.819000", "142540.822000", "142540.825000", "142540.828000", "142540.830000", "142540.833000", "142540.835000", "142540.838000", "142540.840000", "142540.843000", "142540.846000", "142600.792000", "142600.795000", "142600.798000", "142600.800000", "142600.803000", "142600.805000", "142600.808000", "142600.810000", "142600.813000", "142600.815000", "142600.818000", "142600.821000", "142600.823000", "142600.826000", "142600.828000", "142600.831000", "142600.833000", "142600.836000", "142600.838000", "142600.841000", "142600.844000", "142640.817000", "142640.820000", "142640.823000", "142640.825000", "142640.828000", "142640.830000", "142640.833000", "142640.835000", "142640.838000", "142640.840000", "142640.843000", "142640.845000", "142640.848000", "142640.851000", "142640.853000", "142640.856000", "142640.858000", "142640.861000", "142640.863000", "142640.866000", "142640.869000", "142640.871000", "142640.874000", "142640.876000", "142640.886000", "142640.889000", "142640.891000", "142640.894000", "142640.896000", "142720.819000", "142720.822000", "142720.825000", "142720.827000", "142720.830000", "142720.832000", "142720.835000", "142720.838000", "142720.840000", "142720.843000", "142720.845000", "142720.848000", "142720.851000", "142720.853000", "142720.856000", "142720.858000", "142720.861000", "142720.863000", "142720.866000", "142720.869000", "142720.871000", "142720.874000", "142720.876000", "142720.879000", "142720.881000", "142720.884000", "142800.803000", "142800.806000", "142800.809000", "142800.811000", "142800.814000", "142800.816000", "142800.819000", "142800.822000", "142800.824000", "142800.828000", "142800.831000", "142800.833000", "142800.836000", "142800.839000", "142800.841000", "142800.844000", "142800.847000", "142800.849000", "142800.852000", "142800.854000", "142800.857000", "142800.859000", "142800.862000", "142800.865000", "142800.867000", "142800.870000", "142800.872000", "142830.944000", "142830.947000", "142830.950000", "142830.952000", "142830.955000", "142830.957000", "142830.960000", "142830.963000", "142830.966000", "142830.968000", "142830.971000", "142830.974000", "142830.976000", "142830.979000", "142830.982000", "142830.985000", "142830.987000", "142830.990000", "142830.993000", "142830.996000", "142831.000000"],
      "InstanceNumber": [1, 2, 3, 4, 5, 6, 7, 8, 9, 10, 11, 12, 13, 14, 15, 16, 17, 18, 19, 20, 21, 22, 23, 24, 25, 26, 27, 28, 29, 30, 31, 32, 33, 34, 35, 36, 37, 38, 39, 40, 41, 42, 43, 44, 45, 46, 47, 48, 49, 50, 51, 52, 53, 54, 55, 56, 57, 58, 59, 60, 61, 62, 63, 64, 65, 66, 67, 68, 69, 70, 71, 72, 73, 74, 75, 76, 77, 78, 79, 80, 81, 82, 83, 84, 85, 86, 87, 88, 89, 90, 91, 92, 93, 94, 95, 96, 97, 98, 99, 100, 101, 102, 103, 104, 105, 106, 107, 108, 109, 110, 111, 112, 113, 114, 115, 116, 117, 118, 119, 120, 121, 122, 123, 124, 125, 126, 127, 128, 129, 130, 131, 132, 133, 134, 135, 136, 137, 138, 139, 140, 141, 142, 143, 144, 145, 146, 147, 148, 149, 150, 151, 152, 153, 154, 155, 156, 157, 158, 159, 160, 161, 162, 163, 164, 165, 166, 167, 168, 169, 170, 171, 172, 173, 174, 175, 176, 177, 178, 179, 180, 181, 182, 183, 184, 185, 186, 187, 188, 189, 190, 191, 192, 193, 194, 195, 196, 197, 198, 199, 200, 201, 202],
      "WindowCenter": [4872.0, 4890.0, 4890.0, 4888.0, 4868.0, 4890.0, 4866.0, 4866.0, 4890.0, 4890.0, 4866.0, 4866.0, 4866.0, 4890.0, 4866.0, 4868.0, 4866.0, 4890.0, 4892.0, 4888.0, 4866.0, 4864.0, 4864.0, 4866.0, 4866.0, 4888.0, 4866.0, 4868.0, 4888.0, 4870.0, 4866.0, 4866.0, 4866.0, 4866.0, 4868.0, 4864.0, 4866.0, 4864.0, 4888.0, 4868.0, 4864.0, 4890.0, 4866.0, 4890.0, 4888.0, 4868.0, 4888.0, 4864.0, 4862.0, 4862.0, 4864.0, 4868.0, 4866.0, 4888.0, 4866.0, 4864.0, 4864.0, 4888.0, 4862.0, 4866.0, 4868.0, 4868.0, 4866.0, 4864.0, 4866.0, 4864.0, 4866.0, 4864.0, 4890.0, 4866.0, 4890.0, 4888.0, 4890.0, 4866.0, 4866.0, 4888.0, 4864.0, 4868.0, 4866.0, 4864.0, 4864.0, 4890.0, 4866.0, 4864.0, 4890.0, 4866.0, 4862.0, 4888.0, 4890.0, 4864.0, 4864.0, 4890.0, 4864.0, 4890.0, 4866.0, 4892.0, 4868.0, 4866.0, 4890.0, 4866.0, 4888.0, 4862.0, 4864.0, 4864.0, 4866.0, 4868.0, 4864.0, 4890.0, 4866.0, 4866.0, 4890.0, 4868.0, 4886.0, 4866.0, 4860.0, 4864.0, 4888.0, 4888.0, 4864.0, 4890.0, 4866.0, 4890.0, 4886.0, 4866.0, 4868.0, 4862.0, 4866.0, 4862.0, 4864.0, 4862.0, 4866.0, 4866.0, 4888.0, 4862.0, 4892.0, 4864.0, 4860.0, 4864.0, 4866.0, 4862.0, 4862.0, 4864.0, 4860.0, 4888.0, 4860.0, 4866.0, 4888.0, 4890.0, 4864.0, 4888.0, 4890.0, 4866.0, 4860.0, 4864.0, 4862.0, 4890.0, 4864.0, 4888.0, 4862.0, 4868.0, 4862.0, 4866.0, 4864.0, 4866.0, 4862.0, 4886.0, 4864.0, 4866.0, 4862.0, 4864.0, 4864.0, 4858.0, 4864.0, 4888.0, 4890.0, 4890.0, 4886.0, 4892.0, 4862.0, 4862.0, 4858.0, 4862.0, 4858.0, 4866.0, 4864.0, 4864.0, 4866.0, 4862.0, 4862.0, 4888.0, 4856.0, 4856.0, 4864.0, 4864.0, 4890.0, 4886.0, 4866.0, 4862.0, 4830.0, 4858.0, 4864.0, 4890.0],
      "WindowWidth": [18700.0, 18724.0, 18726.0, 18724.0, 18696.0, 18722.0, 18694.0, 18690.0, 18726.0, 18728.0, 18692.0, 18694.0, 18700.0, 18724.0, 18692.0, 18688.0, 18696.0, 18722.0, 18726.0, 18726.0, 18694.0, 18694.0, 18694.0, 18696.0, 18692.0, 18722.0, 18696.0, 18696.0, 18726.0, 18696.0, 18698.0, 18692.0, 18698.0, 18692.0, 18692.0, 18694.0, 18694.0, 18696.0, 18726.0, 18696.0, 18700.0, 18730.0, 18696.0, 18726.0, 18728.0, 18698.0, 18722.0, 18694.0, 18696.0, 18694.0, 18694.0, 18696.0, 18694.0, 18724.0, 18690.0, 18694.0, 18688.0, 18724.0, 18694.0, 18696.0, 18700.0, 18698.0, 18694.0, 18696.0, 18698.0, 18694.0, 18692.0, 18700.0, 18726.0, 18698.0, 18724.0, 18726.0, 18726.0, 18696.0, 18696.0, 18720.0, 18696.0, 18698.0, 18700.0, 18700.0, 18700.0, 18726.0, 18698.0, 18696.0, 18728.0, 18694.0, 18696.0, 18724.0, 18728.0, 18694.0, 18698.0, 18728.0, 18700.0, 18728.0, 18696.0, 18728.0, 18696.0, 18696.0, 18730.0, 18698.0, 18732.0, 18694.0, 18698.0, 18696.0, 18696.0, 18700.0, 18698.0, 18730.0, 18694.0, 18694.0, 18726.0, 18696.0, 18732.0, 18700.0, 18694.0, 18698.0, 18730.0, 18728.0, 18700.0, 18726.0, 18698.0, 18726.0, 18726.0, 18696.0, 18702.0, 18696.0, 18696.0, 18698.0, 18694.0, 18696.0, 18698.0, 18694.0, 18726.0, 18698.0, 18728.0, 18698.0, 18696.0, 18696.0, 18696.0, 18694.0, 18700.0, 18698.0, 18704.0, 18734.0, 18696.0, 18702.0, 18728.0, 18730.0, 18694.0, 18730.0, 18730.0, 18698.0, 18696.0, 18700.0, 18700.0, 18732.0, 18702.0, 18726.0, 18696.0, 18700.0, 18698.0, 18696.0, 18700.0, 18698.0, 18698.0, 18728.0, 18700.0, 18708.0, 18696.0, 18698.0, 18702.0, 18698.0, 18698.0, 18726.0, 18734.0, 18732.0, 18732.0, 18728.0, 18696.0, 18700.0, 18698.0, 18698.0, 18694.0, 18698.0, 18702.0, 18700.0, 18700.0, 18700.0, 18698.0, 18732.0, 18698.0, 18696.0, 18702.0, 18700.0, 18732.0, 18730.0, 18702.0, 18704.0, 18668.0, 18700.0, 18704.0, 18734.0]
    },
    "slices": {}
  }
}