{
  "AcquisitionMatrixPE": 104,
  "AcquisitionNumber": 1,
  "AcquisitionTime": "19:25:56.857500",
  "BandwidthPerPixelPhaseEncode": 17.17,
  "BaseResolution": 104,
  "BodyPartExamined": "BRAIN",
  "CoilCombinationMethod": "Sum of Squares",
  "ConsistencyInfo": "N4_VE11C_LATEST_20160120",
  "ConversionSoftware": "dcm2niix",
  "ConversionSoftwareVersion": "v1.0.20230411",
  "DerivedVendorReportedEchoSpacing": 0.000560011,
  "DeviceSerialNumber": "167006",
  "DwellTime": 2.1e-06,
  "EchoTime": 0.037,
  "EchoTrainLength": 104,
  "EffectiveEchoSpacing": 0.000560011,
  "FlipAngle": 52,
  "HeudiconvVersion": "0.5.3.post861+ge7d3c7f",
  "ImageComments": "Unaliased MB4/PE3/LB",
  "ImageOrientationPatientDICOM": [0.999484, -0.0243732, 0.0209017, 0.0305371, 0.92272, -0.384259],
  "ImageOrientationText": "Tra>Cor(-22.6)>Sag(0.6)",
  "ImageType": [
    "ORIGINAL",
    "PRIMARY",
    "M",
    "MB",
    "ND",
    "MOSAIC"
],
  "ImagingFrequency": 123.249689,
  "InPlanePhaseEncodingDirectionDICOM": "COL",
  "InstitutionAddress": "Chemin Queen-Mary 4565,Montreal,District,CA,H3W 1W5",
  "InstitutionName": "IUGM",
  "InstitutionalDepartmentName": "Department",
  "MRAcquisitionType": "2D",
  "MagneticFieldStrength": 3,
  "Manufacturer": "Siemens",
  "ManufacturersModelName": "Prisma_fit",
  "MatrixCoilMode": "SENSE",
  "Modality": "MR",
  "MultibandAccelerationFactor": 4,
  "NonlinearGradientCorrection": false,
  "PartialFourier": 1,
  "PatientPosition": "HFS",
  "PercentPhaseFOV": 100,
  "PercentSampling": 100,
  "PhaseEncodingDirection": "j",
  "PhaseEncodingSteps": 104,
  "PhaseResolution": 1,
  "PixelBandwidth": 2290,
  "ProcedureStepDescription": "localizers^retinotopy",
  "ProtocolName": "func_task-rings",
  "PulseSequenceDetails": "%CustomerSeq%\\cmrr_mbep2d_bold",
  "ReceiveCoilActiveElements": "HC1-7;NC1,2",
  "ReceiveCoilName": "HeadNeck_64",
  "ReconMatrixPE": 104,
  "RepetitionTime": 1.49,
  "SAR": 0.0930623,
  "ScanOptions": "FS",
  "ScanningSequence": "EP",
  "SequenceName": "epfid2d1_104",
  "SequenceVariant": "SK\\SS",
  "SeriesDescription": "func_task-rings",
  "SeriesNumber": 16,
  "ShimSetting": [591, -7284, -8807, 395, 5, -356, -43, 104],
  "SliceThickness": 2,
  "SliceTiming": [0, 0.7825, 0.0975, 0.88, 0.195, 0.98, 0.2925, 1.0775, 0.39, 1.175, 0.49, 1.2725, 0.5875, 1.37, 0.685, 0, 0.7825, 0.0975, 0.88, 0.195, 0.98, 0.2925, 1.0775, 0.39, 1.175, 0.49, 1.2725, 0.5875, 1.37, 0.685, 0, 0.7825, 0.0975, 0.88, 0.195, 0.98, 0.2925, 1.0775, 0.39, 1.175, 0.49, 1.2725, 0.5875, 1.37, 0.685, 0, 0.7825, 0.0975, 0.88, 0.195, 0.98, 0.2925, 1.0775, 0.39, 1.175, 0.49, 1.2725, 0.5875, 1.37, 0.685],
  "SoftwareVersions": "syngo MR E11",
  "SpacingBetweenSlices": 2,
  "StationName": "MRC35049",
  "TaskName": "rings",
  "TotalReadoutTime": 0.0576811,
  "TxRefAmp": 326.603,
  "WipMemBlock": "8e46abca-1166-401e-9c89-931f9d1f68a8||Sequence: R017 ve11c/master r/75a17815+; Jun 28 2022 16:32:11 by eja",
  "dcmmeta_affine": [
    [-1.9989688396453857, 0.061074141412973404, 0.019841492176055908, 101.43678283691406],
    [0.04874645546078682, 1.8454400300979614, -0.7693990468978882, -69.25498962402344],
    [0.04180333390831947, 0.7685187458992004, 1.8459770679473877, -55.52455520629883],
    [0.0, 0.0, 0.0, 1.0]
],
  "dcmmeta_reorient_transform": [
    [0.0, -1.0, 0.0, 103.0],
    [1.0, 0.0, 0.0, 0.0],
    [0.0, 0.0, 1.0, 0.0],
    [0.0, 0.0, 0.0, 1.0]
],
  "dcmmeta_shape": [104, 104, 60, 202],
  "dcmmeta_slice_dim": 2,
  "dcmmeta_version": 0.6,
  "global": {
    "const": {
      "AcquisitionMatrix": [104, 0, 0, 104],
      "AngioFlag": "N",
      "BitsAllocated": 16,
      "BitsStored": 16,
      "BodyPartExamined": "BRAIN",
      "Columns": 832,
      "EchoNumbers": 1,
      "EchoTime": 37.0,
      "EchoTrainLength": 104,
      "FlipAngle": 52.0,
      "HighBit": 15,
      "ImageOrientationPatient": [0.99948440012994, -0.0243732271585, 0.02090166727277, 0.03053707088933, 0.92272001452569, -0.3842593682595],
      "ImagePositionPatient": [-857.58305219818, -774.82179729213, 288.15728283438],
      "ImageType": [
        "ORIGINAL",
        "PRIMARY",
        "M",
        "MB",
        "ND",
        "MOSAIC"
],
      "ImagedNucleus": "1H",
      "ImagingFrequency": 123.249689,
      "InPlanePhaseEncodingDirection": "COL",
      "MRAcquisitionType": "2D",
      "MagneticFieldStrength": 3.0,
      "Manufacturer": "SIEMENS",
      "ManufacturerModelName": "Prisma_fit",
      "Modality": "MR",
      "NumberOfAverages": 1.0,
      "NumberOfPhaseEncodingSteps": 104,
      "PercentPhaseFieldOfView": 100.0,
      "PercentSampling": 100.0,
      "PerformedProcedureStepStartTime": "191118.681000",
      "PhotometricInterpretation": "MONOCHROME2",
      "PixelBandwidth": 2290.0,
      "PixelRepresentation": 0,
      "PixelSpacing": [2.0, 2.0],
      "ProtocolName": "func_task-rings",
      "RepetitionTime": 1490.0,
      "Rows": 832,
      "SAR": 0.09306231224286,
      "SamplesPerPixel": 1,
      "ScanOptions": "FS",
      "ScanningSequence": "EP",
      "SequenceName": "epfid2d1_104",
      "SequenceVariant": [
        "SK",
        "SS"
],
      "SeriesDescription": "func_task-rings",
      "SeriesNumber": 16,
      "SeriesTime": "192723.030000",
      "SliceLocation": -23.599838052277,
      "SliceThickness": 2.0,
      "SmallestImagePixelValue": 0,
      "SoftwareVersions": "syngo MR E11",
      "SpacingBetweenSlices": 1.9999999927282,
      "SpecificCharacterSet": "ISO_IR 100",
      "StudyID": "1",
      "StudyTime": "191118.602000",
      "TransmitCoilName": "Body",
      "VariableFlipAngleFlag": "N",
      "WindowCenterWidthExplanation": "Algo1",
      "dBdt": 0.0},
    "slices": {}
  },
  "time": {
    "samples": {
      "AcquisitionNumber": [1, 2, 3, 4, 5, 6, 7, 8, 9, 10, 11, 12, 13, 14, 15, 16, 17, 18, 19, 20, 21, 22, 23, 24, 25, 26, 27, 28, 29, 30, 31, 32, 33, 34, 35, 36, 37, 38, 39, 40, 41, 42, 43, 44, 45, 46, 47, 48, 49, 50, 51, 52, 53, 54, 55, 56, 57, 58, 59, 60, 61, 62, 63, 64, 65, 66, 67, 68, 69, 70, 71, 72, 73, 74, 75, 76, 77, 78, 79, 80, 81, 82, 83, 84, 85, 86, 87, 88, 89, 90, 91, 92, 93, 94, 95, 96, 97, 98, 99, 100, 101, 102, 103, 104, 105, 106, 107, 108, 109, 110, 111, 112, 113, 114, 115, 116, 117, 118, 119, 120, 121, 122, 123, 124, 125, 126, 127, 128, 129, 130, 131, 132, 133, 134, 135, 136, 137, 138, 139, 140, 141, 142, 143, 144, 145, 146, 147, 148, 149, 150, 151, 152, 153, 154, 155, 156, 157, 158, 159, 160, 161, 162, 163, 164, 165, 166, 167, 168, 169, 170, 171, 172, 173, 174, 175, 176, 177, 178, 179, 180, 181, 182, 183, 184, 185, 186, 187, 188, 189, 190, 191, 192, 193, 194, 195, 196, 197, 198, 199, 200, 201, 202],
      "AcquisitionTime": ["192556.857500", "192558.347500", "192559.837500", "192601.327500", "192602.817500", "192604.307500", "192605.797500", "192607.287500", "192608.777500", "192610.267500", "192611.757500", "192613.247500", "192614.737500", "192616.227500", "192617.717500", "192619.207500", "192620.697500", "192622.187500", "192623.677500", "192625.167500", "192626.657500", "192628.147500", "192629.637500", "192631.127500", "192632.617500", "192634.107500", "192635.597500", "192637.087500", "192638.577500", "192640.067500", "192641.557500", "192643.047500", "192644.537500", "192646.027500", "192647.517500", "192649.007500", "192650.497500", "192651.987500", "192653.477500", "192654.967500", "192656.457500", "192657.947500", "192659.437500", "192700.927500", "192702.417500", "192703.907500", "192705.397500", "192706.887500", "192708.377500", "192709.867500", "192711.357500", "192712.847500", "192714.337500", "192715.827500", "192717.317500", "192718.807500", "192720.297500", "192721.787500", "192723.277500", "192724.767500", "192726.257500", "192727.747500", "192729.237500", "192730.727500", "192732.217500", "192733.707500", "192735.197500", "192736.687500", "192738.177500", "192739.667500", "192741.157500", "192742.647500", "192744.137500", "192745.627500", "192747.117500", "192748.607500", "192750.097500", "192751.587500", "192753.077500", "192754.567500", "192756.057500", "192757.547500", "192759.037500", "192800.527500", "192802.017500", "192803.507500", "192804.997500", "192806.487500", "192807.977500", "192809.467500", "192810.957500", "192812.447500", "192813.937500", "192815.427500", "192816.917500", "192818.407500", "192819.897500", "192821.387500", "192822.877500", "192824.367500", "192825.857500", "192827.347500", "192828.837500", "192830.327500", "192831.817500", "192833.307500", "192834.797500", "192836.287500", "192837.777500", "192839.267500", "192840.757500", "192842.247500", "192843.737500", "192845.227500", "192846.717500", "192848.207500", "192849.697500", "192851.187500", "192852.677500", "192854.167500", "192855.657500", "192857.147500", "192858.637500", "192900.127500", "192901.617500", "192903.107500", "192904.597500", "192906.087500", "192907.577500", "192909.067500", "192910.557500", "192912.047500", "192913.537500", "192915.027500", "192916.517500", "192918.007500", "192919.497500", "192920.987500", "192922.477500", "192923.967500", "192925.457500", "192926.947500", "192928.437500", "192929.927500", "192931.417500", "192932.907500", "192934.397500", "192935.887500", "192937.377500", "192938.867500", "192940.357500", "192941.847500", "192943.337500", "192944.827500", "192946.317500", "192947.807500", "192949.297500", "192950.787500", "192952.277500", "192953.767500", "192955.257500", "192956.747500", "192958.237500", "192959.727500", "193001.217500", "193002.707500", "193004.197500", "193005.687500", "193007.177500", "193008.667500", "193010.157500", "193011.647500", "193013.137500", "193014.627500", "193016.117500", "193017.607500", "193019.097500", "193020.587500", "193022.077500", "193023.567500", "193025.057500", "193026.547500", "193028.037500", "193029.527500", "193031.017500", "193032.507500", "193033.997500", "193035.487500", "193036.977500", "193038.467500", "193039.957500", "193041.447500", "193042.937500", "193044.427500", "193045.917500", "193047.407500", "193048.897500", "193050.387500", "193051.877500", "193053.367500", "193054.857500", "193056.347500"],
      "ContentTime": ["192723.034000", "192723.038000", "192723.041000", "192723.044000", "192723.048000", "192723.051000", "192723.054000", "192723.058000", "192723.061000", "192723.064000", "192723.068000", "192723.071000", "192723.074000", "192723.078000", "192723.081000", "192723.084000", "192723.087000", "192723.091000", "192723.094000", "192723.097000", "192723.101000", "192723.104000", "192723.107000", "192723.111000", "192723.114000", "192723.128000", "192723.131000", "192723.134000", "192723.138000", "192723.141000", "192723.144000", "192723.148000", "192723.151000", "192723.154000", "192723.157000", "192742.998000", "192743.003000", "192743.006000", "192743.010000", "192743.013000", "192743.016000", "192743.019000", "192743.023000", "192743.026000", "192743.029000", "192743.033000", "192743.036000", "192743.040000", "192743.043000", "192743.046000", "192743.050000", "192743.053000", "192743.056000", "192743.060000", "192743.063000", "192802.998000", "192803.003000", "192803.006000", "192803.009000", "192803.013000", "192803.016000", "192803.019000", "192803.023000", "192803.026000", "192803.029000", "192803.043000", "192803.046000", "192803.049000", "192803.053000", "192803.056000", "192803.059000", "192803.063000", "192803.066000", "192803.069000", "192803.073000", "192803.076000", "192822.998000", "192823.003000", "192823.006000", "192823.009000", "192823.013000", "192823.016000", "192823.019000", "192823.023000", "192823.026000", "192823.029000", "192823.033000", "192823.036000", "192823.039000", "192823.043000", "192823.046000", "192823.049000", "192823.053000", "192823.056000", "192823.059000", "192902.998000", "192903.003000", "192903.007000", "192903.010000", "192903.014000", "192903.017000", "192903.020000", "192903.024000", "192903.027000", "192903.031000", "192903.034000", "192903.038000", "192903.041000", "192903.044000", "192903.048000", "192903.051000", "192903.054000", "192903.058000", "192903.061000", "192903.064000", "192903.068000", "192903.071000", "192903.074000", "192903.078000", "192903.081000", "192903.084000", "192903.088000", "192942.998000", "192943.003000", "192943.006000", "192943.009000", "192943.013000", "192943.016000", "192943.019000", "192943.023000", "192943.026000", "192943.029000", "192943.033000", "192943.036000", "192943.040000", "192943.043000", "192943.046000", "192943.050000", "192943.053000", "192943.056000", "192943.060000", "192943.063000", "192943.066000", "192943.069000", "192943.073000", "192943.076000", "192943.079000", "192943.083000", "192943.086000", "193022.998000", "193023.003000", "193023.006000", "193023.010000", "193023.013000", "193023.016000", "193023.031000", "193023.035000", "193023.038000", "193023.041000", "193023.045000", "193023.048000", "193023.052000", "193023.055000", "193023.058000", "193023.062000", "193023.065000", "193023.068000", "193023.072000", "193023.075000", "193023.078000", "193023.082000", "193023.085000", "193023.088000", "193023.092000", "193023.095000", "193023.098000", "193101.336000", "193101.340000", "193101.343000", "193101.347000", "193101.350000", "193101.354000", "193101.357000", "193101.361000", "193101.365000", "193101.368000", "193101.371000", "193101.375000", "193101.378000", "193101.382000", "193101.385000", "193101.389000", "193101.392000", "193101.395000", "193101.399000", "193101.402000", "193101.405000", "193101.409000", "193101.416000", "193101.420000", "193101.423000", "193101.427000"],
      "InstanceCreationTime": ["192723.034000", "192723.038000", "192723.041000", "192723.044000", "192723.048000", "192723.051000", "192723.054000", "192723.058000", "192723.061000", "192723.064000", "192723.068000", "192723.071000", "192723.074000", "192723.078000", "192723.081000", "192723.084000", "192723.087000", "192723.091000", "192723.094000", "192723.097000", "192723.101000", "192723.104000", "192723.107000", "192723.111000", "192723.114000", "192723.128000", "192723.131000", "192723.134000", "192723.138000", "192723.141000", "192723.144000", "192723.148000", "192723.151000", "192723.154000", "192723.157000", "192742.998000", "192743.003000", "192743.006000", "192743.010000", "192743.013000", "192743.016000", "192743.019000", "192743.023000", "192743.026000", "192743.029000", "192743.033000", "192743.036000", "192743.040000", "192743.043000", "192743.046000", "192743.050000", "192743.053000", "192743.056000", "192743.060000", "192743.063000", "192802.998000", "192803.003000", "192803.006000", "192803.009000", "192803.013000", "192803.016000", "192803.019000", "192803.023000", "192803.026000", "192803.029000", "192803.043000", "192803.046000", "192803.049000", "192803.053000", "192803.056000", "192803.059000", "192803.063000", "192803.066000", "192803.069000", "192803.073000", "192803.076000", "192822.998000", "192823.003000", "192823.006000", "192823.009000", "192823.013000", "192823.016000", "192823.019000", "192823.023000", "192823.026000", "192823.029000", "192823.033000", "192823.036000", "192823.039000", "192823.043000", "192823.046000", "192823.049000", "192823.053000", "192823.056000", "192823.059000", "192902.998000", "192903.003000", "192903.007000", "192903.010000", "192903.014000", "192903.017000", "192903.020000", "192903.024000", "192903.027000", "192903.031000", "192903.034000", "192903.038000", "192903.041000", "192903.044000", "192903.048000", "192903.051000", "192903.054000", "192903.058000", "192903.061000", "192903.064000", "192903.068000", "192903.071000", "192903.074000", "192903.078000", "192903.081000", "192903.084000", "192903.088000", "192942.998000", "192943.003000", "192943.006000", "192943.009000", "192943.013000", "192943.016000", "192943.019000", "192943.023000", "192943.026000", "192943.029000", "192943.033000", "192943.036000", "192943.040000", "192943.043000", "192943.046000", "192943.050000", "192943.053000", "192943.056000", "192943.060000", "192943.063000", "192943.066000", "192943.069000", "192943.073000", "192943.076000", "192943.079000", "192943.083000", "192943.086000", "193022.998000", "193023.003000", "193023.006000", "193023.010000", "193023.013000", "193023.016000", "193023.031000", "193023.035000", "193023.038000", "193023.041000", "193023.045000", "193023.048000", "193023.052000", "193023.055000", "193023.058000", "193023.062000", "193023.065000", "193023.068000", "193023.072000", "193023.075000", "193023.078000", "193023.082000", "193023.085000", "193023.088000", "193023.092000", "193023.095000", "193023.098000", "193101.336000", "193101.340000", "193101.343000", "193101.347000", "193101.350000", "193101.354000", "193101.357000", "193101.361000", "193101.365000", "193101.368000", "193101.371000", "193101.375000", "193101.378000", "193101.382000", "193101.385000", "193101.389000", "193101.392000", "193101.395000", "193101.399000", "193101.402000", "193101.405000", "193101.409000", "193101.416000", "193101.420000", "193101.423000", "193101.427000"],
      "InstanceNumber": [1, 2, 3, 4, 5, 6, 7, 8, 9, 10, 11, 12, 13, 14, 15, 16, 17, 18, 19, 20, 21, 22, 23, 24, 25, 26, 27, 28, 29, 30, 31, 32, 33, 34, 35, 36, 37, 38, 39, 40, 41, 42, 43, 44, 45, 46, 47, 48, 49, 50, 51, 52, 53, 54, 55, 56, 57, 58, 59, 60, 61, 62, 63, 64, 65, 66, 67, 68, 69, 70, 71, 72, 73, 74, 75, 76, 77, 78, 79, 80, 81, 82, 83, 84, 85, 86, 87, 88, 89, 90, 91, 92, 93, 94, 95, 96, 97, 98, 99, 100, 101, 102, 103, 104, 105, 106, 107, 108, 109, 110, 111, 112, 113, 114, 115, 116, 117, 118, 119, 120, 121, 122, 123, 124, 125, 126, 127, 128, 129, 130, 131, 132, 133, 134, 135, 136, 137, 138, 139, 140, 141, 142, 143, 144, 145, 146, 147, 148, 149, 150, 151, 152, 153, 154, 155, 156, 157, 158, 159, 160, 161, 162, 163, 164, 165, 166, 167, 168, 169, 170, 171, 172, 173, 174, 175, 176, 177, 178, 179, 180, 181, 182, 183, 184, 185, 186, 187, 188, 189, 190, 191, 192, 193, 194, 195, 196, 197, 198, 199, 200, 201, 202],
      "LargestImagePixelValue": [62783, 61430, 60785, 60116, 60561, 59353, 57956, 58475, 57254, 58243, 57868, 58247, 58983, 57350, 58331, 58603, 59831, 59364, 59255, 58912, 59581, 58341, 59005, 57661, 58757, 57190, 58497, 57356, 57932, 57826, 59614, 56663, 57138, 58165, 57384, 56364, 58433, 58360, 59167, 58757, 57735, 57483, 58217, 57747, 57572, 57834, 58043, 57964, 59056, 58763, 59389, 58846, 59035, 57907, 58280, 56816, 57654, 57033, 57597, 57451, 58111, 58176, 58266, 59118, 58390, 58766, 57648, 58010, 57274, 58019, 57448, 58041, 58445, 58443, 58646, 57707, 58465, 57934, 57958, 58798, 58368, 59158, 58280, 58490, 58294, 58016, 57907, 58351, 58130, 57469, 58224, 57513, 58094, 57234, 58276, 57073, 58724, 57316, 58083, 57581, 58247, 58407, 57803, 58618, 57678, 58864, 57811, 57687, 57753, 57467, 58314, 56586, 57422, 56658, 56922, 57462, 57121, 57355, 57061, 57435, 57580, 56935, 56866, 57412, 56539, 57139, 56444, 57320, 56785, 56386, 57446, 56279, 57201, 55914, 56743, 56878, 55964, 57100, 56076, 56614, 56682, 56299, 56880, 56641, 55644, 55176, 54751, 56352, 56467, 57596, 58043, 58866, 58444, 58183, 57578, 56483, 56147, 55732, 55083, 55652, 55955, 56547, 57011, 56388, 56443, 56434, 56070, 55742, 55247, 56002, 54053, 55430, 54349, 55905, 55940, 55218, 56474, 54818, 56020, 55202, 54463, 54965, 54680, 56023, 55843, 56105, 55845, 55852, 56241, 55261, 56473, 54309, 55291, 54098, 55515, 55108, 54843, 56391, 55002, 56037, 56367, 54942],
      "WindowCenter": [10935.0, 10861.0, 10829.0, 10815.0, 10845.0, 10860.0, 10877.0, 10885.0, 10874.0, 10877.0, 10870.0, 10877.0, 10879.0, 10848.0, 10870.0, 10864.0, 10861.0, 10846.0, 10851.0, 10861.0, 10880.0, 10876.0, 10891.0, 10887.0, 10902.0, 10860.0, 10912.0, 10884.0, 10881.0, 10869.0, 10876.0, 10820.0, 10783.0, 10792.0, 10763.0, 10749.0, 10787.0, 10798.0, 10834.0, 10855.0, 10843.0, 10833.0, 10822.0, 10830.0, 10854.0, 10879.0, 10880.0, 10871.0, 10858.0, 10847.0, 10846.0, 10849.0, 10858.0, 10868.0, 10880.0, 10876.0, 10885.0, 10864.0, 10867.0, 10884.0, 10898.0, 10884.0, 10875.0, 10856.0, 10836.0, 10845.0, 10839.0, 10852.0, 10851.0, 10852.0, 10849.0, 10858.0, 10861.0, 10871.0, 10871.0, 10861.0, 10863.0, 10849.0, 10854.0, 10846.0, 10848.0, 10850.0, 10832.0, 10831.0, 10817.0, 10825.0, 10832.0, 10846.0, 10852.0, 10851.0, 10857.0, 10853.0, 10862.0, 10852.0, 10861.0, 10861.0, 10877.0, 10862.0, 10852.0, 10823.0, 10819.0, 10821.0, 10834.0, 10842.0, 10832.0, 10838.0, 10820.0, 10814.0, 10811.0, 10827.0, 10846.0, 10849.0, 10863.0, 10853.0, 10852.0, 10845.0, 10833.0, 10838.0, 10847.0, 10850.0, 10840.0, 10833.0, 10834.0, 10838.0, 10843.0, 10848.0, 10831.0, 10840.0, 10835.0, 10843.0, 10855.0, 10844.0, 10846.0, 10829.0, 10834.0, 10831.0, 10827.0, 10835.0, 10837.0, 10850.0, 10838.0, 10836.0, 10838.0, 10852.0, 10837.0, 10818.0, 10795.0, 10803.0, 10811.0, 10815.0, 10790.0, 10775.0, 10760.0, 10766.0, 10774.0, 10793.0, 10811.0, 10833.0, 10835.0, 10837.0, 10832.0, 10835.0, 10834.0, 10839.0, 10847.0, 10841.0, 10836.0, 10819.0, 10812.0, 10822.0, 10818.0, 10843.0, 10841.0, 10863.0, 10855.0, 10846.0, 10854.0, 10839.0, 10855.0, 10844.0, 10837.0, 10824.0, 10815.0, 10829.0, 10830.0, 10826.0, 10823.0, 10816.0, 10815.0, 10819.0, 10803.0, 10806.0, 10826.0, 10824.0, 10844.0, 10837.0, 10817.0, 10816.0, 10802.0, 10813.0, 10812.0, 10795.0],
      "WindowWidth": [23836.0, 23611.0, 23510.0, 23466.0, 23522.0, 23559.0, 23604.0, 23619.0, 23596.0, 23601.0, 23585.0, 23602.0, 23604.0, 23531.0, 23585.0, 23568.0, 23559.0, 23525.0, 23536.0, 23562.0, 23604.0, 23601.0, 23631.0, 23629.0, 23662.0, 23563.0, 23682.0, 23616.0, 23604.0, 23577.0, 23615.0, 23488.0, 23377.0, 23390.0, 23324.0, 23293.0, 23382.0, 23402.0, 23484.0, 23536.0, 23513.0, 23489.0, 23463.0, 23484.0, 23542.0, 23600.0, 23603.0, 23581.0, 23546.0, 23519.0, 23517.0, 23526.0, 23546.0, 23574.0, 23600.0, 23600.0, 23621.0, 23576.0, 23570.0, 23608.0, 23642.0, 23609.0, 23585.0, 23540.0, 23497.0, 23517.0, 23509.0, 23537.0, 23535.0, 23536.0, 23529.0, 23549.0, 23553.0, 23577.0, 23577.0, 23557.0, 23559.0, 23526.0, 23538.0, 23518.0, 23525.0, 23526.0, 23487.0, 23483.0, 23454.0, 23472.0, 23488.0, 23520.0, 23531.0, 23534.0, 23546.0, 23537.0, 23554.0, 23533.0, 23551.0, 23553.0, 23584.0, 23557.0, 23529.0, 23462.0, 23450.0, 23452.0, 23485.0, 23503.0, 23485.0, 23494.0, 23454.0, 23440.0, 23432.0, 23472.0, 23514.0, 23528.0, 23557.0, 23537.0, 23533.0, 23512.0, 23487.0, 23497.0, 23520.0, 23527.0, 23502.0, 23488.0, 23489.0, 23499.0, 23513.0, 23523.0, 23487.0, 23503.0, 23493.0, 23511.0, 23538.0, 23514.0, 23517.0, 23480.0, 23490.0, 23480.0, 23476.0, 23491.0, 23500.0, 23529.0, 23500.0, 23493.0, 23497.0, 23534.0, 23505.0, 23459.0, 23406.0, 23418.0, 23438.0, 23440.0, 23375.0, 23338.0, 23304.0, 23319.0, 23343.0, 23394.0, 23439.0, 23494.0, 23501.0, 23504.0, 23488.0, 23492.0, 23488.0, 23503.0, 23521.0, 23508.0, 23498.0, 23460.0, 23446.0, 23466.0, 23465.0, 23520.0, 23516.0, 23561.0, 23543.0, 23525.0, 23538.0, 23508.0, 23543.0, 23519.0, 23508.0, 23474.0, 23449.0, 23479.0, 23483.0, 23475.0, 23464.0, 23448.0, 23446.0, 23464.0, 23420.0, 23432.0, 23478.0, 23476.0, 23522.0, 23504.0, 23457.0, 23450.0, 23420.0, 23442.0, 23439.0, 23405.0]
    },
    "slices": {}
  }
}