{
  "AcquisitionMatrixPE": 104,
  "AcquisitionNumber": 1,
  "AcquisitionTime": "19:16:27.832500",
  "BandwidthPerPixelPhaseEncode": 17.17,
  "BaseResolution": 104,
  "BodyPartExamined": "BRAIN",
  "CoilCombinationMethod": "Sum of Squares",
  "ConsistencyInfo": "N4_VE11C_LATEST_20160120",
  "ConversionSoftware": "dcm2niix",
  "ConversionSoftwareVersion": "v1.0.20230411",
  "DerivedVendorReportedEchoSpacing": 0.000560011,
  "DeviceSerialNumber": "167006",
  "DwellTime": 2.1e-06,
  "EchoTime": 0.037,
  "EchoTrainLength": 104,
  "EffectiveEchoSpacing": 0.000560011,
  "FlipAngle": 52,
  "HeudiconvVersion": "0.5.3.post861+ge7d3c7f",
  "ImageComments": "Unaliased MB4/PE3/LB",
  "ImageOrientationPatientDICOM": [0.999484, -0.0243732, 0.0209017, 0.0305371, 0.92272, -0.384259],
  "ImageOrientationText": "Tra>Cor(-22.6)>Sag(0.6)",
  "ImageType": [
    "ORIGINAL",
    "PRIMARY",
    "M",
    "MB",
    "ND",
    "MOSAIC"
],
  "ImagingFrequency": 123.24969,
  "InPlanePhaseEncodingDirectionDICOM": "COL",
  "InstitutionAddress": "Chemin Queen-Mary 4565,Montreal,District,CA,H3W 1W5",
  "InstitutionName": "IUGM",
  "InstitutionalDepartmentName": "Department",
  "MRAcquisitionType": "2D",
  "MagneticFieldStrength": 3,
  "Manufacturer": "Siemens",
  "ManufacturersModelName": "Prisma_fit",
  "MatrixCoilMode": "SENSE",
  "Modality": "MR",
  "MultibandAccelerationFactor": 4,
  "NonlinearGradientCorrection": false,
  "PartialFourier": 1,
  "PatientPosition": "HFS",
  "PercentPhaseFOV": 100,
  "PercentSampling": 100,
  "PhaseEncodingDirection": "j",
  "PhaseEncodingSteps": 104,
  "PhaseResolution": 1,
  "PixelBandwidth": 2290,
  "ProcedureStepDescription": "localizers^retinotopy",
  "ProtocolName": "func_task-wedges",
  "PulseSequenceDetails": "%CustomerSeq%\\cmrr_mbep2d_bold",
  "ReceiveCoilActiveElements": "HC1-7;NC1,2",
  "ReceiveCoilName": "HeadNeck_64",
  "ReconMatrixPE": 104,
  "RepetitionTime": 1.49,
  "SAR": 0.0930623,
  "ScanOptions": "FS",
  "ScanningSequence": "EP",
  "SequenceName": "epfid2d1_104",
  "SequenceVariant": "SK\\SS",
  "SeriesDescription": "func_task-wedges",
  "SeriesNumber": 10,
  "ShimSetting": [591, -7284, -8807, 395, 5, -356, -43, 104],
  "SliceThickness": 2,
  "SliceTiming": [0, 0.7825, 0.0975, 0.88, 0.195, 0.98, 0.2925, 1.0775, 0.39, 1.175, 0.49, 1.2725, 0.5875, 1.37, 0.685, 0, 0.7825, 0.0975, 0.88, 0.195, 0.98, 0.2925, 1.0775, 0.39, 1.175, 0.49, 1.2725, 0.5875, 1.37, 0.685, 0, 0.7825, 0.0975, 0.88, 0.195, 0.98, 0.2925, 1.0775, 0.39, 1.175, 0.49, 1.2725, 0.5875, 1.37, 0.685, 0, 0.7825, 0.0975, 0.88, 0.195, 0.98, 0.2925, 1.0775, 0.39, 1.175, 0.49, 1.2725, 0.5875, 1.37, 0.685],
  "SoftwareVersions": "syngo MR E11",
  "SpacingBetweenSlices": 2,
  "StationName": "MRC35049",
  "TaskName": "wedges",
  "TotalReadoutTime": 0.0576811,
  "TxRefAmp": 326.603,
  "WipMemBlock": "c68f3ca1-5ad2-4e36-b1d6-21d56287e3db||Sequence: R017 ve11c/master r/75a17815+; Jun 28 2022 16:32:11 by eja",
  "dcmmeta_affine": [
    [-1.9989688396453857, 0.061074141412973404, 0.019841492176055908, 101.43678283691406],
    [0.04874645546078682, 1.8454400300979614, -0.7693990468978882, -69.25498962402344],
    [0.04180333390831947, 0.7685187458992004, 1.8459770679473877, -55.52455520629883],
    [0.0, 0.0, 0.0, 1.0]
],
  "dcmmeta_reorient_transform": [
    [0.0, -1.0, 0.0, 103.0],
    [1.0, 0.0, 0.0, 0.0],
    [0.0, 0.0, 1.0, 0.0],
    [0.0, 0.0, 0.0, 1.0]
],
  "dcmmeta_shape": [104, 104, 60, 202],
  "dcmmeta_slice_dim": 2,
  "dcmmeta_version": 0.6,
  "global": {
    "const": {
      "AcquisitionMatrix": [104, 0, 0, 104],
      "AngioFlag": "N",
      "BitsAllocated": 16,
      "BitsStored": 16,
      "BodyPartExamined": "BRAIN",
      "Columns": 832,
      "EchoNumbers": 1,
      "EchoTime": 37.0,
      "EchoTrainLength": 104,
      "FlipAngle": 52.0,
      "HighBit": 15,
      "ImageOrientationPatient": [0.99948440012994, -0.0243732271585, 0.02090166727277, 0.03053707088933, 0.92272001452569, -0.3842593682595],
      "ImagePositionPatient": [-857.58305219818, -774.82179729213, 288.15728283438],
      "ImageType": [
        "ORIGINAL",
        "PRIMARY",
        "M",
        "MB",
        "ND",
        "MOSAIC"
],
      "ImagedNucleus": "1H",
      "ImagingFrequency": 123.24969,
      "InPlanePhaseEncodingDirection": "COL",
      "MRAcquisitionType": "2D",
      "MagneticFieldStrength": 3.0,
      "Manufacturer": "SIEMENS",
      "ManufacturerModelName": "Prisma_fit",
      "Modality": "MR",
      "NumberOfAverages": 1.0,
      "NumberOfPhaseEncodingSteps": 104,
      "PercentPhaseFieldOfView": 100.0,
      "PercentSampling": 100.0,
      "PerformedProcedureStepStartTime": "191118.681000",
      "PhotometricInterpretation": "MONOCHROME2",
      "PixelBandwidth": 2290.0,
      "PixelRepresentation": 0,
      "PixelSpacing": [2.0, 2.0],
      "ProtocolName": "func_task-wedges",
      "RepetitionTime": 1490.0,
      "Rows": 832,
      "SAR": 0.09306231224286,
      "SamplesPerPixel": 1,
      "ScanOptions": "FS",
      "ScanningSequence": "EP",
      "SequenceName": "epfid2d1_104",
      "SequenceVariant": [
        "SK",
        "SS"
],
      "SeriesDescription": "func_task-wedges",
      "SeriesNumber": 10,
      "SeriesTime": "191743.483000",
      "SliceLocation": -23.599838052277,
      "SliceThickness": 2.0,
      "SmallestImagePixelValue": 0,
      "SoftwareVersions": "syngo MR E11",
      "SpacingBetweenSlices": 1.9999999927282,
      "SpecificCharacterSet": "ISO_IR 100",
      "StudyID": "1",
      "StudyTime": "191118.602000",
      "TransmitCoilName": "Body",
      "VariableFlipAngleFlag": "N",
      "WindowCenterWidthExplanation": "Algo1",
      "dBdt": 0.0},
    "slices": {}
  },
  "time": {
    "samples": {
      "AcquisitionNumber": [1, 2, 3, 4, 5, 6, 7, 8, 9, 10, 11, 12, 13, 14, 15, 16, 17, 18, 19, 20, 21, 22, 23, 24, 25, 26, 27, 28, 29, 30, 31, 32, 33, 34, 35, 36, 37, 38, 39, 40, 41, 42, 43, 44, 45, 46, 47, 48, 49, 50, 51, 52, 53, 54, 55, 56, 57, 58, 59, 60, 61, 62, 63, 64, 65, 66, 67, 68, 69, 70, 71, 72, 73, 74, 75, 76, 77, 78, 79, 80, 81, 82, 83, 84, 85, 86, 87, 88, 89, 90, 91, 92, 93, 94, 95, 96, 97, 98, 99, 100, 101, 102, 103, 104, 105, 106, 107, 108, 109, 110, 111, 112, 113, 114, 115, 116, 117, 118, 119, 120, 121, 122, 123, 124, 125, 126, 127, 128, 129, 130, 131, 132, 133, 134, 135, 136, 137, 138, 139, 140, 141, 142, 143, 144, 145, 146, 147, 148, 149, 150, 151, 152, 153, 154, 155, 156, 157, 158, 159, 160, 161, 162, 163, 164, 165, 166, 167, 168, 169, 170, 171, 172, 173, 174, 175, 176, 177, 178, 179, 180, 181, 182, 183, 184, 185, 186, 187, 188, 189, 190, 191, 192, 193, 194, 195, 196, 197, 198, 199, 200, 201, 202],
      "AcquisitionTime": ["191627.832500", "191629.322500", "191630.812500", "191632.302500", "191633.792500", "191635.282500", "191636.772500", "191638.262500", "191639.752500", "191641.242500", "191642.732500", "191644.222500", "191645.712500", "191647.202500", "191648.692500", "191650.182500", "191651.672500", "191653.162500", "191654.652500", "191656.142500", "191657.632500", "191659.122500", "191700.612500", "191702.102500", "191703.592500", "191705.082500", "191706.572500", "191708.062500", "191709.552500", "191711.042500", "191712.532500", "191714.022500", "191715.512500", "191717.002500", "191718.492500", "191719.982500", "191721.472500", "191722.962500", "191724.452500", "191725.942500", "191727.432500", "191728.922500", "191730.412500", "191731.902500", "191733.392500", "191734.882500", "191736.372500", "191737.862500", "191739.352500", "191740.842500", "191742.332500", "191743.822500", "191745.312500", "191746.802500", "191748.292500", "191749.782500", "191751.272500", "191752.762500", "191754.252500", "191755.742500", "191757.232500", "191758.722500", "191800.212500", "191801.702500", "191803.192500", "191804.682500", "191806.172500", "191807.662500", "191809.152500", "191810.642500", "191812.132500", "191813.622500", "191815.112500", "191816.602500", "191818.092500", "191819.582500", "191821.072500", "191822.562500", "191824.052500", "191825.542500", "191827.032500", "191828.522500", "191830.012500", "191831.502500", "191832.992500", "191834.482500", "191835.972500", "191837.462500", "191838.952500", "191840.442500", "191841.932500", "191843.422500", "191844.912500", "191846.402500", "191847.892500", "191849.382500", "191850.872500", "191852.362500", "191853.852500", "191855.342500", "191856.832500", "191858.322500", "191859.812500", "191901.302500", "191902.792500", "191904.282500", "191905.772500", "191907.262500", "191908.752500", "191910.242500", "191911.732500", "191913.222500", "191914.712500", "191916.202500", "191917.692500", "191919.182500", "191920.672500", "191922.162500", "191923.652500", "191925.142500", "191926.632500", "191928.122500", "191929.612500", "191931.102500", "191932.592500", "191934.082500", "191935.572500", "191937.062500", "191938.552500", "191940.042500", "191941.532500", "191943.022500", "191944.512500", "191946.002500", "191947.492500", "191948.982500", "191950.472500", "191951.962500", "191953.452500", "191954.942500", "191956.432500", "191957.922500", "191959.412500", "192000.902500", "192002.392500", "192003.882500", "192005.372500", "192006.862500", "192008.352500", "192009.842500", "192011.332500", "192012.822500", "192014.312500", "192015.802500", "192017.292500", "192018.782500", "192020.272500", "192021.762500", "192023.252500", "192024.742500", "192026.232500", "192027.722500", "192029.212500", "192030.702500", "192032.192500", "192033.682500", "192035.172500", "192036.662500", "192038.152500", "192039.642500", "192041.132500", "192042.622500", "192044.112500", "192045.602500", "192047.092500", "192048.582500", "192050.072500", "192051.562500", "192053.052500", "192054.542500", "192056.032500", "192057.522500", "192059.012500", "192100.502500", "192101.992500", "192103.482500", "192104.972500", "192106.462500", "192107.952500", "192109.442500", "192110.932500", "192112.422500", "192113.912500", "192115.402500", "192116.892500", "192118.382500", "192119.872500", "192121.362500", "192122.852500", "192124.342500", "192125.832500", "192127.322500"],
      "ContentTime": ["191743.486000", "191743.495000", "191743.499000", "191743.502000", "191743.505000", "191743.509000", "191743.512000", "191743.515000", "191743.519000", "191743.522000", "191743.525000", "191743.529000", "191743.532000", "191743.536000", "191743.539000", "191743.542000", "191743.546000", "191743.549000", "191743.553000", "191743.557000", "191743.560000", "191743.564000", "191743.567000", "191743.574000", "191743.578000", "191803.442000", "191803.446000", "191803.449000", "191803.453000", "191803.456000", "191803.459000", "191803.462000", "191803.466000", "191803.469000", "191803.472000", "191803.476000", "191803.479000", "191803.482000", "191803.486000", "191803.489000", "191803.492000", "191803.496000", "191803.499000", "191803.502000", "191803.506000", "191803.509000", "191823.442000", "191823.446000", "191823.449000", "191823.452000", "191823.456000", "191823.459000", "191823.462000", "191823.466000", "191823.469000", "191823.472000", "191823.476000", "191823.479000", "191823.482000", "191823.486000", "191823.489000", "191823.492000", "191823.496000", "191823.499000", "191823.502000", "191823.506000", "191843.442000", "191843.446000", "191843.449000", "191843.452000", "191843.456000", "191843.459000", "191843.463000", "191843.466000", "191843.469000", "191843.472000", "191843.476000", "191843.479000", "191843.482000", "191843.486000", "191843.489000", "191843.492000", "191843.496000", "191843.499000", "191843.511000", "191843.515000", "191923.442000", "191923.447000", "191923.465000", "191923.469000", "191923.484000", "191923.488000", "191923.491000", "191923.494000", "191923.498000", "191923.501000", "191923.504000", "191923.508000", "191923.511000", "191923.514000", "191923.518000", "191923.521000", "191923.524000", "191923.528000", "191923.531000", "191923.534000", "191923.538000", "191923.541000", "191923.545000", "191923.548000", "191923.551000", "191923.554000", "191923.558000", "191923.561000", "191923.564000", "191923.568000", "192003.442000", "192003.446000", "192003.449000", "192003.453000", "192003.456000", "192003.459000", "192003.463000", "192003.466000", "192003.469000", "192003.473000", "192003.476000", "192003.479000", "192003.483000", "192003.486000", "192003.489000", "192003.493000", "192003.496000", "192003.499000", "192003.503000", "192003.506000", "192003.509000", "192003.512000", "192003.516000", "192003.519000", "192003.524000", "192003.527000", "192043.442000", "192043.446000", "192043.449000", "192043.453000", "192043.456000", "192043.459000", "192043.462000", "192043.466000", "192043.469000", "192043.472000", "192043.476000", "192043.479000", "192043.482000", "192043.486000", "192043.489000", "192043.492000", "192043.495000", "192043.499000", "192043.502000", "192043.506000", "192043.509000", "192043.521000", "192043.524000", "192043.528000", "192043.531000", "192043.534000", "192043.538000", "192123.442000", "192123.446000", "192123.449000", "192123.453000", "192123.456000", "192123.459000", "192123.463000", "192123.466000", "192123.469000", "192123.473000", "192123.476000", "192123.479000", "192123.483000", "192123.486000", "192123.489000", "192123.493000", "192123.496000", "192123.499000", "192123.503000", "192123.506000", "192123.509000", "192123.524000", "192123.528000", "192123.531000", "192123.534000", "192123.538000", "192123.541000", "192131.625000", "192131.628000", "192131.632000", "192131.635000", "192131.639000", "192131.642000"],
      "InstanceCreationTime": ["191743.486000", "191743.495000", "191743.499000", "191743.502000", "191743.505000", "191743.509000", "191743.512000", "191743.515000", "191743.519000", "191743.522000", "191743.525000", "191743.529000", "191743.532000", "191743.536000", "191743.539000", "191743.542000", "191743.546000", "191743.549000", "191743.553000", "191743.557000", "191743.560000", "191743.564000", "191743.567000", "191743.574000", "191743.578000", "191803.442000", "191803.446000", "191803.449000", "191803.453000", "191803.456000", "191803.459000", "191803.462000", "191803.466000", "191803.469000", "191803.472000", "191803.476000", "191803.479000", "191803.482000", "191803.486000", "191803.489000", "191803.492000", "191803.496000", "191803.499000", "191803.502000", "191803.506000", "191803.509000", "191823.442000", "191823.446000", "191823.449000", "191823.452000", "191823.456000", "191823.459000", "191823.462000", "191823.466000", "191823.469000", "191823.472000", "191823.476000", "191823.479000", "191823.482000", "191823.486000", "191823.489000", "191823.492000", "191823.496000", "191823.499000", "191823.502000", "191823.506000", "191843.442000", "191843.446000", "191843.449000", "191843.452000", "191843.456000", "191843.459000", "191843.463000", "191843.466000", "191843.469000", "191843.472000", "191843.476000", "191843.479000", "191843.482000", "191843.486000", "191843.489000", "191843.492000", "191843.496000", "191843.499000", "191843.511000", "191843.515000", "191923.442000", "191923.447000", "191923.465000", "191923.469000", "191923.484000", "191923.488000", "191923.491000", "191923.494000", "191923.498000", "191923.501000", "191923.504000", "191923.508000", "191923.511000", "191923.514000", "191923.518000", "191923.521000", "191923.524000", "191923.528000", "191923.531000", "191923.534000", "191923.538000", "191923.541000", "191923.545000", "191923.548000", "191923.551000", "191923.554000", "191923.558000", "191923.561000", "191923.564000", "191923.568000", "192003.442000", "192003.446000", "192003.449000", "192003.453000", "192003.456000", "192003.459000", "192003.463000", "192003.466000", "192003.469000", "192003.473000", "192003.476000", "192003.479000", "192003.483000", "192003.486000", "192003.489000", "192003.493000", "192003.496000", "192003.499000", "192003.503000", "192003.506000", "192003.509000", "192003.512000", "192003.516000", "192003.519000", "192003.524000", "192003.527000", "192043.442000", "192043.446000", "192043.449000", "192043.453000", "192043.456000", "192043.459000", "192043.462000", "192043.466000", "192043.469000", "192043.472000", "192043.476000", "192043.479000", "192043.482000", "192043.486000", "192043.489000", "192043.492000", "192043.495000", "192043.499000", "192043.502000", "192043.506000", "192043.509000", "192043.521000", "192043.524000", "192043.528000", "192043.531000", "192043.534000", "192043.538000", "192123.442000", "192123.446000", "192123.449000", "192123.453000", "192123.456000", "192123.459000", "192123.463000", "192123.466000", "192123.469000", "192123.473000", "192123.476000", "192123.479000", "192123.483000", "192123.486000", "192123.489000", "192123.493000", "192123.496000", "192123.499000", "192123.503000", "192123.506000", "192123.509000", "192123.524000", "192123.528000", "192123.531000", "192123.534000", "192123.538000", "192123.541000", "192131.625000", "192131.628000", "192131.632000", "192131.635000", "192131.639000", "192131.642000"],
      "InstanceNumber": [1, 2, 3, 4, 5, 6, 7, 8, 9, 10, 11, 12, 13, 14, 15, 16, 17, 18, 19, 20, 21, 22, 23, 24, 25, 26, 27, 28, 29, 30, 31, 32, 33, 34, 35, 36, 37, 38, 39, 40, 41, 42, 43, 44, 45, 46, 47, 48, 49, 50, 51, 52, 53, 54, 55, 56, 57, 58, 59, 60, 61, 62, 63, 64, 65, 66, 67, 68, 69, 70, 71, 72, 73, 74, 75, 76, 77, 78, 79, 80, 81, 82, 83, 84, 85, 86, 87, 88, 89, 90, 91, 92, 93, 94, 95, 96, 97, 98, 99, 100, 101, 102, 103, 104, 105, 106, 107, 108, 109, 110, 111, 112, 113, 114, 115, 116, 117, 118, 119, 120, 121, 122, 123, 124, 125, 126, 127, 128, 129, 130, 131, 132, 133, 134, 135, 136, 137, 138, 139, 140, 141, 142, 143, 144, 145, 146, 147, 148, 149, 150, 151, 152, 153, 154, 155, 156, 157, 158, 159, 160, 161, 162, 163, 164, 165, 166, 167, 168, 169, 170, 171, 172, 173, 174, 175, 176, 177, 178, 179, 180, 181, 182, 183, 184, 185, 186, 187, 188, 189, 190, 191, 192, 193, 194, 195, 196, 197, 198, 199, 200, 201, 202],
      "LargestImagePixelValue": [61982, 59574, 59261, 57746, 57512, 56880, 58073, 57360, 57710, 57818, 58504, 58175, 58563, 58631, 58398, 57676, 58020, 57300, 56731, 56900, 56480, 57789, 57483, 58332, 57815, 58268, 57404, 57872, 57916, 57748, 57722, 57706, 57391, 57614, 58068, 58353, 58384, 58763, 58360, 58522, 58304, 58066, 58061, 57874, 58635, 58745, 58948, 58187, 58169, 58697, 58751, 58810, 58639, 59042, 58670, 59231, 59005, 58662, 58792, 58804, 58665, 58194, 57635, 58501, 58101, 57734, 57647, 58056, 58825, 58611, 58753, 59232, 59021, 58897, 58063, 57977, 58148, 57975, 58070, 58530, 58786, 59372, 59260, 58918, 58097, 58321, 58019, 58032, 57997, 58207, 57731, 58270, 58459, 58404, 58540, 58017, 58559, 58487, 58349, 58512, 58640, 58199, 58042, 58041, 57861, 57559, 58550, 58527, 59115, 58979, 59228, 58529, 58615, 58458, 57637, 57933, 57956, 57257, 57713, 57889, 58259, 57973, 58450, 58175, 57693, 57664, 57839, 58277, 57479, 57640, 57365, 57541, 57764, 57743, 57936, 58236, 57839, 58028, 57750, 57998, 57841, 57892, 57795, 57625, 57859, 58048, 57479, 57981, 57524, 57847, 57662, 57613, 57789, 57378, 57947, 57036, 57257, 57366, 57866, 58350, 57854, 58194, 57681, 57673, 58620, 58234, 58575, 58784, 58741, 58890, 58766, 59056, 58496, 58449, 57869, 57994, 57172, 57313, 57704, 57962, 57606, 58053, 58315, 58533, 58521, 58672, 57874, 58167, 58227, 58424, 58409, 58170, 58428, 58236, 58682, 58797, 58558, 58319, 58837, 58821, 58217, 58567],
      "WindowCenter": [10948.0, 10889.0, 10893.0, 10874.0, 10874.0, 10832.0, 10856.0, 10852.0, 10860.0, 10859.0, 10849.0, 10833.0, 10810.0, 10813.0, 10814.0, 10826.0, 10846.0, 10856.0, 10856.0, 10830.0, 10795.0, 10816.0, 10836.0, 10852.0, 10827.0, 10789.0, 10759.0, 10765.0, 10783.0, 10808.0, 10837.0, 10853.0, 10861.0, 10878.0, 10869.0, 10868.0, 10867.0, 10881.0, 10882.0, 10900.0, 10895.0, 10889.0, 10875.0, 10849.0, 10845.0, 10846.0, 10869.0, 10874.0, 10884.0, 10889.0, 10883.0, 10877.0, 10859.0, 10862.0, 10849.0, 10847.0, 10841.0, 10834.0, 10836.0, 10838.0, 10853.0, 10848.0, 10844.0, 10869.0, 10866.0, 10837.0, 10835.0, 10843.0, 10849.0, 10827.0, 10802.0, 10784.0, 10775.0, 10809.0, 10832.0, 10846.0, 10855.0, 10855.0, 10847.0, 10843.0, 10847.0, 10859.0, 10856.0, 10850.0, 10837.0, 10841.0, 10848.0, 10871.0, 10882.0, 10878.0, 10862.0, 10855.0, 10847.0, 10858.0, 10866.0, 10863.0, 10863.0, 10863.0, 10848.0, 10843.0, 10840.0, 10851.0, 10869.0, 10858.0, 10831.0, 10818.0, 10834.0, 10840.0, 10832.0, 10798.0, 10771.0, 10748.0, 10739.0, 10747.0, 10762.0, 10799.0, 10833.0, 10849.0, 10866.0, 10863.0, 10861.0, 10852.0, 10854.0, 10859.0, 10850.0, 10842.0, 10840.0, 10842.0, 10840.0, 10851.0, 10856.0, 10865.0, 10869.0, 10870.0, 10863.0, 10862.0, 10856.0, 10846.0, 10833.0, 10830.0, 10821.0, 10834.0, 10837.0, 10839.0, 10846.0, 10838.0, 10833.0, 10838.0, 10838.0, 10853.0, 10839.0, 10840.0, 10843.0, 10840.0, 10853.0, 10836.0, 10835.0, 10817.0, 10819.0, 10819.0, 10827.0, 10841.0, 10848.0, 10846.0, 10835.0, 10828.0, 10842.0, 10840.0, 10833.0, 10819.0, 10811.0, 10818.0, 10819.0, 10838.0, 10841.0, 10853.0, 10824.0, 10868.0, 10879.0, 10891.0, 10889.0, 10865.0, 10848.0, 10824.0, 10821.0, 10832.0, 10838.0, 10845.0, 10846.0, 10854.0, 10851.0, 10853.0, 10844.0, 10847.0, 10846.0, 10850.0, 10844.0, 10829.0, 10827.0, 10833.0, 10829.0, 10841.0],
      "WindowWidth": [23891.0, 23706.0, 23684.0, 23626.0, 23631.0, 23514.0, 23556.0, 23553.0, 23566.0, 23562.0, 23539.0, 23501.0, 23446.0, 23451.0, 23455.0, 23485.0, 23530.0, 23559.0, 23568.0, 23501.0, 23413.0, 23455.0, 23505.0, 23542.0, 23480.0, 23388.0, 23320.0, 23331.0, 23378.0, 23439.0, 23508.0, 23545.0, 23566.0, 23606.0, 23582.0, 23580.0, 23577.0, 23612.0, 23614.0, 23659.0, 23648.0, 23635.0, 23600.0, 23538.0, 23525.0, 23525.0, 23582.0, 23594.0, 23619.0, 23630.0, 23617.0, 23604.0, 23561.0, 23567.0, 23536.0, 23531.0, 23517.0, 23500.0, 23503.0, 23509.0, 23544.0, 23536.0, 23528.0, 23587.0, 23582.0, 23510.0, 23500.0, 23521.0, 23532.0, 23481.0, 23421.0, 23377.0, 23357.0, 23439.0, 23496.0, 23529.0, 23547.0, 23547.0, 23529.0, 23515.0, 23523.0, 23548.0, 23546.0, 23534.0, 23507.0, 23515.0, 23537.0, 23588.0, 23615.0, 23602.0, 23568.0, 23548.0, 23531.0, 23555.0, 23575.0, 23570.0, 23570.0, 23571.0, 23533.0, 23521.0, 23511.0, 23540.0, 23586.0, 23561.0, 23491.0, 23459.0, 23490.0, 23507.0, 23484.0, 23404.0, 23341.0, 23291.0, 23271.0, 23291.0, 23332.0, 23419.0, 23498.0, 23539.0, 23578.0, 23569.0, 23563.0, 23541.0, 23546.0, 23559.0, 23541.0, 23521.0, 23518.0, 23519.0, 23519.0, 23539.0, 23554.0, 23576.0, 23584.0, 23586.0, 23569.0, 23568.0, 23555.0, 23532.0, 23501.0, 23492.0, 23473.0, 23502.0, 23509.0, 23514.0, 23530.0, 23511.0, 23503.0, 23511.0, 23512.0, 23547.0, 23514.0, 23516.0, 23522.0, 23518.0, 23546.0, 23511.0, 23504.0, 23464.0, 23464.0, 23462.0, 23483.0, 23515.0, 23535.0, 23532.0, 23498.0, 23481.0, 23515.0, 23506.0, 23490.0, 23459.0, 23438.0, 23456.0, 23461.0, 23509.0, 23517.0, 23553.0, 23478.0, 23585.0, 23608.0, 23635.0, 23627.0, 23571.0, 23532.0, 23474.0, 23467.0, 23493.0, 23506.0, 23522.0, 23525.0, 23543.0, 23536.0, 23542.0, 23522.0, 23527.0, 23524.0, 23533.0, 23518.0, 23483.0, 23477.0, 23491.0, 23486.0, 23508.0]
    },
    "slices": {}
  }
}