{
  "AcquisitionMatrixPE": 104,
  "AcquisitionNumber": 1,
  "AcquisitionTime": "19:32:51.862500",
  "BandwidthPerPixelPhaseEncode": 17.17,
  "BaseResolution": 104,
  "BodyPartExamined": "BRAIN",
  "CoilCombinationMethod": "Sum of Squares",
  "ConsistencyInfo": "N4_VE11C_LATEST_20160120",
  "ConversionSoftware": "dcm2niix",
  "ConversionSoftwareVersion": "v1.0.20230411",
  "DerivedVendorReportedEchoSpacing": 0.000560011,
  "DeviceSerialNumber": "167006",
  "DwellTime": 2.1e-06,
  "EchoTime": 0.037,
  "EchoTrainLength": 104,
  "EffectiveEchoSpacing": 0.000560011,
  "FlipAngle": 52,
  "HeudiconvVersion": "0.5.3.post861+ge7d3c7f",
  "ImageComments": "Unaliased MB4/PE3/LB",
  "ImageOrientationPatientDICOM": [0.999484, -0.0243732, 0.0209017, 0.0305371, 0.92272, -0.384259],
  "ImageOrientationText": "Tra>Cor(-22.6)>Sag(0.6)",
  "ImageType": [
    "ORIGINAL",
    "PRIMARY",
    "M",
    "MB",
    "ND",
    "MOSAIC"
],
  "ImagingFrequency": 123.249692,
  "InPlanePhaseEncodingDirectionDICOM": "COL",
  "InstitutionAddress": "Chemin Queen-Mary 4565,Montreal,District,CA,H3W 1W5",
  "InstitutionName": "IUGM",
  "InstitutionalDepartmentName": "Department",
  "MRAcquisitionType": "2D",
  "MagneticFieldStrength": 3,
  "Manufacturer": "Siemens",
  "ManufacturersModelName": "Prisma_fit",
  "MatrixCoilMode": "SENSE",
  "Modality": "MR",
  "MultibandAccelerationFactor": 4,
  "NonlinearGradientCorrection": false,
  "PartialFourier": 1,
  "PatientPosition": "HFS",
  "PercentPhaseFOV": 100,
  "PercentSampling": 100,
  "PhaseEncodingDirection": "j",
  "PhaseEncodingSteps": 104,
  "PhaseResolution": 1,
  "PixelBandwidth": 2290,
  "ProcedureStepDescription": "localizers^retinotopy",
  "ProtocolName": "func_task-bars",
  "PulseSequenceDetails": "%CustomerSeq%\\cmrr_mbep2d_bold",
  "ReceiveCoilActiveElements": "HC1-7;NC1,2",
  "ReceiveCoilName": "HeadNeck_64",
  "ReconMatrixPE": 104,
  "RepetitionTime": 1.49,
  "SAR": 0.0930623,
  "ScanOptions": "FS",
  "ScanningSequence": "EP",
  "SequenceName": "epfid2d1_104",
  "SequenceVariant": "SK\\SS",
  "SeriesDescription": "func_task-bars",
  "SeriesNumber": 19,
  "ShimSetting": [591, -7284, -8807, 395, 5, -356, -43, 104],
  "SliceThickness": 2,
  "SliceTiming": [0, 0.785, 0.0975, 0.8825, 0.1975, 0.98, 0.295, 1.0775, 0.3925, 1.1775, 0.49, 1.275, 0.5875, 1.3725, 0.6875, 0, 0.785, 0.0975, 0.8825, 0.1975, 0.98, 0.295, 1.0775, 0.3925, 1.1775, 0.49, 1.275, 0.5875, 1.3725, 0.6875, 0, 0.785, 0.0975, 0.8825, 0.1975, 0.98, 0.295, 1.0775, 0.3925, 1.1775, 0.49, 1.275, 0.5875, 1.3725, 0.6875, 0, 0.785, 0.0975, 0.8825, 0.1975, 0.98, 0.295, 1.0775, 0.3925, 1.1775, 0.49, 1.275, 0.5875, 1.3725, 0.6875],
  "SoftwareVersions": "syngo MR E11",
  "SpacingBetweenSlices": 2,
  "StationName": "MRC35049",
  "TaskName": "bars",
  "TotalReadoutTime": 0.0576811,
  "TxRefAmp": 326.603,
  "WipMemBlock": "c5fc4501-2ea9-4237-a635-ee2492bfa0a5||Sequence: R017 ve11c/master r/75a17815+; Jun 28 2022 16:32:11 by eja",
  "dcmmeta_affine": [
    [-1.9989688396453857, 0.061074141412973404, 0.019841492176055908, 101.43678283691406],
    [0.04874645546078682, 1.8454400300979614, -0.7693990468978882, -69.25498962402344],
    [0.04180333390831947, 0.7685187458992004, 1.8459770679473877, -55.52455520629883],
    [0.0, 0.0, 0.0, 1.0]
],
  "dcmmeta_reorient_transform": [
    [0.0, -1.0, 0.0, 103.0],
    [1.0, 0.0, 0.0, 0.0],
    [0.0, 0.0, 1.0, 0.0],
    [0.0, 0.0, 0.0, 1.0]
],
  "dcmmeta_shape": [104, 104, 60, 202],
  "dcmmeta_slice_dim": 2,
  "dcmmeta_version": 0.6,
  "global": {
    "const": {
      "AcquisitionMatrix": [104, 0, 0, 104],
      "AngioFlag": "N",
      "BitsAllocated": 16,
      "BitsStored": 16,
      "BodyPartExamined": "BRAIN",
      "Columns": 832,
      "EchoNumbers": 1,
      "EchoTime": 37.0,
      "EchoTrainLength": 104,
      "FlipAngle": 52.0,
      "HighBit": 15,
      "ImageOrientationPatient": [0.99948440012994, -0.0243732271585, 0.02090166727277, 0.03053707088933, 0.92272001452569, -0.3842593682595],
      "ImagePositionPatient": [-857.58305219818, -774.82179729213, 288.15728283438],
      "ImageType": [
        "ORIGINAL",
        "PRIMARY",
        "M",
        "MB",
        "ND",
        "MOSAIC"
],
      "ImagedNucleus": "1H",
      "ImagingFrequency": 123.249692,
      "InPlanePhaseEncodingDirection": "COL",
      "MRAcquisitionType": "2D",
      "MagneticFieldStrength": 3.0,
      "Manufacturer": "SIEMENS",
      "ManufacturerModelName": "Prisma_fit",
      "Modality": "MR",
      "NumberOfAverages": 1.0,
      "NumberOfPhaseEncodingSteps": 104,
      "PercentPhaseFieldOfView": 100.0,
      "PercentSampling": 100.0,
      "PerformedProcedureStepStartTime": "191118.681000",
      "PhotometricInterpretation": "MONOCHROME2",
      "PixelBandwidth": 2290.0,
      "PixelRepresentation": 0,
      "PixelSpacing": [2.0, 2.0],
      "ProtocolName": "func_task-bars",
      "RepetitionTime": 1490.0,
      "Rows": 832,
      "SAR": 0.09306231224286,
      "SamplesPerPixel": 1,
      "ScanOptions": "FS",
      "ScanningSequence": "EP",
      "SequenceName": "epfid2d1_104",
      "SequenceVariant": [
        "SK",
        "SS"
],
      "SeriesDescription": "func_task-bars",
      "SeriesNumber": 19,
      "SeriesTime": "193403.484000",
      "SliceLocation": -23.599838052277,
      "SliceThickness": 2.0,
      "SmallestImagePixelValue": 0,
      "SoftwareVersions": "syngo MR E11",
      "SpacingBetweenSlices": 1.9999999927282,
      "SpecificCharacterSet": "ISO_IR 100",
      "StudyID": "1",
      "StudyTime": "191118.602000",
      "TransmitCoilName": "Body",
      "VariableFlipAngleFlag": "N",
      "WindowCenterWidthExplanation": "Algo1",
      "dBdt": 0.0},
    "slices": {}
  },
  "time": {
    "samples": {
      "AcquisitionNumber": [1, 2, 3, 4, 5, 6, 7, 8, 9, 10, 11, 12, 13, 14, 15, 16, 17, 18, 19, 20, 21, 22, 23, 24, 25, 26, 27, 28, 29, 30, 31, 32, 33, 34, 35, 36, 37, 38, 39, 40, 41, 42, 43, 44, 45, 46, 47, 48, 49, 50, 51, 52, 53, 54, 55, 56, 57, 58, 59, 60, 61, 62, 63, 64, 65, 66, 67, 68, 69, 70, 71, 72, 73, 74, 75, 76, 77, 78, 79, 80, 81, 82, 83, 84, 85, 86, 87, 88, 89, 90, 91, 92, 93, 94, 95, 96, 97, 98, 99, 100, 101, 102, 103, 104, 105, 106, 107, 108, 109, 110, 111, 112, 113, 114, 115, 116, 117, 118, 119, 120, 121, 122, 123, 124, 125, 126, 127, 128, 129, 130, 131, 132, 133, 134, 135, 136, 137, 138, 139, 140, 141, 142, 143, 144, 145, 146, 147, 148, 149, 150, 151, 152, 153, 154, 155, 156, 157, 158, 159, 160, 161, 162, 163, 164, 165, 166, 167, 168, 169, 170, 171, 172, 173, 174, 175, 176, 177, 178, 179, 180, 181, 182, 183, 184, 185, 186, 187, 188, 189, 190, 191, 192, 193, 194, 195, 196, 197, 198, 199, 200, 201, 202],
      "AcquisitionTime": ["193251.862500", "193253.352500", "193254.842500", "193256.332500", "193257.822500", "193259.312500", "193300.802500", "193302.292500", "193303.782500", "193305.272500", "193306.762500", "193308.252500", "193309.742500", "193311.232500", "193312.722500", "193314.212500", "193315.702500", "193317.192500", "193318.682500", "193320.172500", "193321.662500", "193323.152500", "193324.642500", "193326.132500", "193327.622500", "193329.112500", "193330.602500", "193332.092500", "193333.582500", "193335.072500", "193336.562500", "193338.052500", "193339.542500", "193341.032500", "193342.522500", "193344.012500", "193345.502500", "193346.992500", "193348.482500", "193349.972500", "193351.462500", "193352.952500", "193354.442500", "193355.932500", "193357.422500", "193358.912500", "193400.402500", "193401.892500", "193403.382500", "193404.872500", "193406.362500", "193407.852500", "193409.342500", "193410.832500", "193412.322500", "193413.812500", "193415.302500", "193416.792500", "193418.282500", "193419.772500", "193421.262500", "193422.752500", "193424.242500", "193425.732500", "193427.222500", "193428.712500", "193430.202500", "193431.692500", "193433.182500", "193434.672500", "193436.162500", "193437.652500", "193439.142500", "193440.632500", "193442.122500", "193443.612500", "193445.102500", "193446.592500", "193448.082500", "193449.572500", "193451.062500", "193452.552500", "193454.042500", "193455.532500", "193457.022500", "193458.512500", "193500.002500", "193501.492500", "193502.982500", "193504.472500", "193505.962500", "193507.452500", "193508.942500", "193510.432500", "193511.922500", "193513.412500", "193514.902500", "193516.392500", "193517.882500", "193519.372500", "193520.862500", "193522.352500", "193523.842500", "193525.332500", "193526.822500", "193528.312500", "193529.802500", "193531.292500", "193532.782500", "193534.272500", "193535.762500", "193537.252500", "193538.742500", "193540.232500", "193541.722500", "193543.212500", "193544.702500", "193546.192500", "193547.682500", "193549.172500", "193550.662500", "193552.152500", "193553.642500", "193555.132500", "193556.622500", "193558.112500", "193559.602500", "193601.092500", "193602.582500", "193604.072500", "193605.562500", "193607.052500", "193608.542500", "193610.032500", "193611.522500", "193613.012500", "193614.502500", "193615.992500", "193617.482500", "193618.972500", "193620.462500", "193621.952500", "193623.442500", "193624.932500", "193626.422500", "193627.912500", "193629.402500", "193630.892500", "193632.382500", "193633.872500", "193635.362500", "193636.852500", "193638.342500", "193639.832500", "193641.322500", "193642.812500", "193644.302500", "193645.792500", "193647.282500", "193648.772500", "193650.262500", "193651.752500", "193653.242500", "193654.732500", "193656.222500", "193657.712500", "193659.202500", "193700.692500", "193702.182500", "193703.672500", "193705.162500", "193706.652500", "193708.142500", "193709.632500", "193711.122500", "193712.612500", "193714.102500", "193715.592500", "193717.082500", "193718.572500", "193720.062500", "193721.552500", "193723.042500", "193724.532500", "193726.022500", "193727.512500", "193729.002500", "193730.492500", "193731.982500", "193733.472500", "193734.962500", "193736.452500", "193737.942500", "193739.432500", "193740.922500", "193742.412500", "193743.902500", "193745.392500", "193746.882500", "193748.372500", "193749.862500", "193751.352500"],
      "ContentTime": ["193403.487000", "193403.491000", "193403.494000", "193403.498000", "193403.501000", "193403.505000", "193403.509000", "193403.513000", "193403.516000", "193403.519000", "193403.522000", "193403.526000", "193403.529000", "193403.533000", "193403.536000", "193403.539000", "193403.543000", "193403.546000", "193403.549000", "193403.553000", "193423.442000", "193423.446000", "193423.449000", "193423.452000", "193423.456000", "193423.459000", "193423.462000", "193423.466000", "193423.469000", "193423.472000", "193423.476000", "193423.479000", "193423.482000", "193423.486000", "193423.489000", "193423.492000", "193423.495000", "193423.499000", "193423.502000", "193423.505000", "193443.442000", "193443.446000", "193443.449000", "193443.452000", "193443.456000", "193443.468000", "193443.471000", "193443.474000", "193443.478000", "193443.481000", "193443.484000", "193443.488000", "193443.491000", "193443.494000", "193443.498000", "193443.501000", "193443.504000", "193443.507000", "193443.511000", "193443.514000", "193443.517000", "193503.442000", "193503.446000", "193503.449000", "193503.453000", "193503.456000", "193503.459000", "193503.462000", "193503.466000", "193503.469000", "193503.472000", "193503.476000", "193503.479000", "193503.482000", "193503.486000", "193503.489000", "193503.492000", "193503.496000", "193503.510000", "193503.513000", "193503.516000", "193543.442000", "193543.446000", "193543.449000", "193543.453000", "193543.456000", "193543.460000", "193543.463000", "193543.466000", "193543.470000", "193543.473000", "193543.477000", "193543.480000", "193543.483000", "193543.487000", "193543.490000", "193543.493000", "193543.497000", "193543.500000", "193543.503000", "193543.507000", "193543.510000", "193543.513000", "193543.517000", "193543.520000", "193543.523000", "193543.527000", "193543.530000", "193543.534000", "193543.537000", "193543.540000", "193543.544000", "193623.442000", "193623.446000", "193623.449000", "193623.453000", "193623.456000", "193623.459000", "193623.463000", "193623.466000", "193623.469000", "193623.472000", "193623.476000", "193623.479000", "193623.482000", "193623.486000", "193623.489000", "193623.493000", "193623.496000", "193623.499000", "193623.502000", "193623.506000", "193623.509000", "193623.513000", "193623.516000", "193623.519000", "193623.523000", "193623.526000", "193623.529000", "193703.442000", "193703.446000", "193703.449000", "193703.453000", "193703.456000", "193703.459000", "193703.463000", "193703.466000", "193703.469000", "193703.472000", "193703.485000", "193703.488000", "193703.491000", "193703.495000", "193703.498000", "193703.501000", "193703.505000", "193703.508000", "193703.511000", "193703.515000", "193703.518000", "193703.521000", "193703.524000", "193703.528000", "193703.531000", "193703.535000", "193703.538000", "193743.442000", "193743.446000", "193743.449000", "193743.453000", "193743.456000", "193743.459000", "193743.463000", "193743.466000", "193743.469000", "193743.473000", "193743.476000", "193743.479000", "193743.483000", "193743.486000", "193743.489000", "193743.493000", "193743.496000", "193743.500000", "193743.503000", "193743.506000", "193743.510000", "193743.513000", "193743.516000", "193743.520000", "193743.523000", "193743.526000", "193743.530000", "193756.113000", "193756.117000", "193756.120000", "193756.123000", "193756.127000", "193756.130000", "193756.133000", "193756.137000", "193756.140000"],
      "InstanceCreationTime": ["193403.487000", "193403.491000", "193403.494000", "193403.498000", "193403.501000", "193403.505000", "193403.509000", "193403.513000", "193403.516000", "193403.519000", "193403.522000", "193403.526000", "193403.529000", "193403.533000", "193403.536000", "193403.539000", "193403.543000", "193403.546000", "193403.549000", "193403.553000", "193423.442000", "193423.446000", "193423.449000", "193423.452000", "193423.456000", "193423.459000", "193423.462000", "193423.466000", "193423.469000", "193423.472000", "193423.476000", "193423.479000", "193423.482000", "193423.486000", "193423.489000", "193423.492000", "193423.495000", "193423.499000", "193423.502000", "193423.505000", "193443.442000", "193443.446000", "193443.449000", "193443.452000", "193443.456000", "193443.468000", "193443.471000", "193443.474000", "193443.478000", "193443.481000", "193443.484000", "193443.488000", "193443.491000", "193443.494000", "193443.498000", "193443.501000", "193443.504000", "193443.507000", "193443.511000", "193443.514000", "193443.517000", "193503.442000", "193503.446000", "193503.449000", "193503.453000", "193503.456000", "193503.459000", "193503.462000", "193503.466000", "193503.469000", "193503.472000", "193503.476000", "193503.479000", "193503.482000", "193503.486000", "193503.489000", "193503.492000", "193503.496000", "193503.510000", "193503.513000", "193503.516000", "193543.442000", "193543.446000", "193543.449000", "193543.453000", "193543.456000", "193543.460000", "193543.463000", "193543.466000", "193543.470000", "193543.473000", "193543.477000", "193543.480000", "193543.483000", "193543.487000", "193543.490000", "193543.493000", "193543.497000", "193543.500000", "193543.503000", "193543.507000", "193543.510000", "193543.513000", "193543.517000", "193543.520000", "193543.523000", "193543.527000", "193543.530000", "193543.534000", "193543.537000", "193543.540000", "193543.544000", "193623.442000", "193623.446000", "193623.449000", "193623.453000", "193623.456000", "193623.459000", "193623.463000", "193623.466000", "193623.469000", "193623.472000", "193623.476000", "193623.479000", "193623.482000", "193623.486000", "193623.489000", "193623.493000", "193623.496000", "193623.499000", "193623.502000", "193623.506000", "193623.509000", "193623.513000", "193623.516000", "193623.519000", "193623.523000", "193623.526000", "193623.529000", "193703.442000", "193703.446000", "193703.449000", "193703.453000", "193703.456000", "193703.459000", "193703.463000", "193703.466000", "193703.469000", "193703.472000", "193703.485000", "193703.488000", "193703.491000", "193703.495000", "193703.498000", "193703.501000", "193703.505000", "193703.508000", "193703.511000", "193703.515000", "193703.518000", "193703.521000", "193703.524000", "193703.528000", "193703.531000", "193703.535000", "193703.538000", "193743.442000", "193743.446000", "193743.449000", "193743.453000", "193743.456000", "193743.459000", "193743.463000", "193743.466000", "193743.469000", "193743.473000", "193743.476000", "193743.479000", "193743.483000", "193743.486000", "193743.489000", "193743.493000", "193743.496000", "193743.500000", "193743.503000", "193743.506000", "193743.510000", "193743.513000", "193743.516000", "193743.520000", "193743.523000", "193743.526000", "193743.530000", "193756.113000", "193756.117000", "193756.120000", "193756.123000", "193756.127000", "193756.130000", "193756.133000", "193756.137000", "193756.140000"],
      "InstanceNumber": [1, 2, 3, 4, 5, 6, 7, 8, 9, 10, 11, 12, 13, 14, 15, 16, 17, 18, 19, 20, 21, 22, 23, 24, 25, 26, 27, 28, 29, 30, 31, 32, 33, 34, 35, 36, 37, 38, 39, 40, 41, 42, 43, 44, 45, 46, 47, 48, 49, 50, 51, 52, 53, 54, 55, 56, 57, 58, 59, 60, 61, 62, 63, 64, 65, 66, 67, 68, 69, 70, 71, 72, 73, 74, 75, 76, 77, 78, 79, 80, 81, 82, 83, 84, 85, 86, 87, 88, 89, 90, 91, 92, 93, 94, 95, 96, 97, 98, 99, 100, 101, 102, 103, 104, 105, 106, 107, 108, 109, 110, 111, 112, 113, 114, 115, 116, 117, 118, 119, 120, 121, 122, 123, 124, 125, 126, 127, 128, 129, 130, 131, 132, 133, 134, 135, 136, 137, 138, 139, 140, 141, 142, 143, 144, 145, 146, 147, 148, 149, 150, 151, 152, 153, 154, 155, 156, 157, 158, 159, 160, 161, 162, 163, 164, 165, 166, 167, 168, 169, 170, 171, 172, 173, 174, 175, 176, 177, 178, 179, 180, 181, 182, 183, 184, 185, 186, 187, 188, 189, 190, 191, 192, 193, 194, 195, 196, 197, 198, 199, 200, 201, 202],
      "LargestImagePixelValue": [60850, 58666, 58136, 56746, 56723, 56566, 56773, 56490, 57137, 56848, 56692, 56902, 56489, 57589, 56478, 57701, 56426, 55845, 55850, 56879, 55730, 55920, 55583, 56107, 55798, 56192, 56434, 56365, 56680, 57288, 56406, 56388, 56553, 55888, 56091, 55920, 55038, 54989, 54994, 54977, 55369, 55741, 55225, 55541, 56240, 55637, 56390, 55849, 56211, 56657, 55906, 56276, 56166, 56563, 56445, 56609, 56588, 56786, 57301, 57647, 56987, 56804, 56226, 56327, 56118, 57080, 56452, 56482, 56924, 57055, 57495, 57340, 57880, 57669, 57158, 56895, 56924, 56955, 56795, 57059, 57122, 57113, 57699, 56935, 57219, 56885, 56986, 57178, 56992, 57047, 57841, 57003, 57349, 57527, 58114, 57414, 57300, 57681, 57800, 57364, 57831, 57421, 57813, 56299, 56879, 57211, 57330, 57685, 57336, 57749, 57757, 58040, 57424, 56516, 56777, 57011, 57102, 56649, 56412, 56305, 56797, 56934, 57196, 57181, 56642, 56359, 56262, 56354, 56153, 56598, 56566, 56005, 56228, 56778, 57161, 56509, 56713, 56872, 56760, 56654, 55982, 56270, 55908, 55751, 55482, 56137, 55054, 55737, 55890, 55945, 56093, 55842, 55404, 56015, 55522, 55716, 55255, 55631, 55864, 55611, 55999, 55109, 55026, 55229, 55561, 55220, 55385, 55110, 56019, 54813, 55476, 55138, 55165, 54760, 55328, 54795, 55829, 55671, 55767, 55740, 55693, 55678, 55220, 55171, 55441, 55220, 55857, 55041, 54523, 54722, 55335, 54478, 54557, 54526, 54345, 55128, 54274, 54383, 54298, 53907, 54381, 53632],
      "WindowCenter": [10957.0, 10893.0, 10873.0, 10854.0, 10861.0, 10866.0, 10878.0, 10866.0, 10869.0, 10855.0, 10841.0, 10838.0, 10831.0, 10848.0, 10831.0, 10820.0, 10798.0, 10788.0, 10793.0, 10833.0, 10831.0, 10830.0, 10809.0, 10808.0, 10814.0, 10842.0, 10851.0, 10838.0, 10810.0, 10799.0, 10774.0, 10781.0, 10793.0, 10803.0, 10806.0, 10813.0, 10812.0, 10810.0, 10809.0, 10800.0, 10805.0, 10803.0, 10796.0, 10804.0, 10810.0, 10804.0, 10809.0, 10802.0, 10808.0, 10801.0, 10788.0, 10799.0, 10799.0, 10798.0, 10795.0, 10806.0, 10803.0, 10808.0, 10805.0, 10811.0, 10807.0, 10817.0, 10822.0, 10827.0, 10816.0, 10816.0, 10811.0, 10822.0, 10824.0, 10849.0, 10838.0, 10833.0, 10822.0, 10815.0, 10814.0, 10811.0, 10822.0, 10837.0, 10848.0, 10851.0, 10854.0, 10841.0, 10831.0, 10822.0, 10836.0, 10841.0, 10841.0, 10832.0, 10839.0, 10856.0, 10861.0, 10845.0, 10848.0, 10832.0, 10828.0, 10817.0, 10809.0, 10813.0, 10812.0, 10813.0, 10826.0, 10822.0, 10833.0, 10843.0, 10859.0, 10842.0, 10845.0, 10858.0, 10856.0, 10835.0, 10803.0, 10795.0, 10793.0, 10804.0, 10814.0, 10821.0, 10834.0, 10830.0, 10846.0, 10847.0, 10848.0, 10833.0, 10824.0, 10820.0, 10816.0, 10830.0, 10833.0, 10839.0, 10833.0, 10838.0, 10842.0, 10854.0, 10854.0, 10847.0, 10850.0, 10844.0, 10839.0, 10835.0, 10822.0, 10815.0, 10816.0, 10822.0, 10830.0, 10822.0, 10821.0, 10825.0, 10813.0, 10818.0, 10815.0, 10821.0, 10816.0, 10809.0, 10809.0, 10817.0, 10819.0, 10818.0, 10811.0, 10804.0, 10807.0, 10810.0, 10821.0, 10820.0, 10820.0, 10818.0, 10807.0, 10797.0, 10801.0, 10797.0, 10799.0, 10783.0, 10794.0, 10801.0, 10803.0, 10790.0, 10786.0, 10786.0, 10819.0, 10839.0, 10834.0, 10819.0, 10804.0, 10787.0, 10762.0, 10755.0, 10768.0, 10784.0, 10800.0, 10791.0, 10790.0, 10799.0, 10813.0, 10810.0, 10817.0, 10806.0, 10797.0, 10793.0, 10794.0, 10805.0, 10812.0, 10806.0, 10802.0, 10795.0],
      "WindowWidth": [23907.0, 23707.0, 23629.0, 23574.0, 23580.0, 23587.0, 23612.0, 23584.0, 23584.0, 23553.0, 23520.0, 23512.0, 23495.0, 23529.0, 23494.0, 23464.0, 23412.0, 23384.0, 23394.0, 23494.0, 23490.0, 23489.0, 23444.0, 23440.0, 23455.0, 23517.0, 23539.0, 23507.0, 23442.0, 23411.0, 23358.0, 23374.0, 23402.0, 23426.0, 23432.0, 23451.0, 23451.0, 23442.0, 23434.0, 23409.0, 23423.0, 23418.0, 23404.0, 23422.0, 23436.0, 23421.0, 23433.0, 23417.0, 23427.0, 23412.0, 23384.0, 23411.0, 23411.0, 23408.0, 23404.0, 23428.0, 23425.0, 23431.0, 23421.0, 23434.0, 23429.0, 23453.0, 23468.0, 23479.0, 23456.0, 23452.0, 23443.0, 23464.0, 23471.0, 23533.0, 23503.0, 23487.0, 23460.0, 23447.0, 23443.0, 23439.0, 23464.0, 23504.0, 23529.0, 23535.0, 23541.0, 23512.0, 23486.0, 23463.0, 23497.0, 23511.0, 23510.0, 23488.0, 23506.0, 23546.0, 23554.0, 23517.0, 23521.0, 23485.0, 23476.0, 23450.0, 23432.0, 23439.0, 23438.0, 23441.0, 23469.0, 23462.0, 23488.0, 23523.0, 23559.0, 23514.0, 23516.0, 23548.0, 23543.0, 23493.0, 23415.0, 23392.0, 23390.0, 23420.0, 23443.0, 23460.0, 23491.0, 23483.0, 23519.0, 23522.0, 23524.0, 23489.0, 23468.0, 23458.0, 23452.0, 23486.0, 23494.0, 23505.0, 23495.0, 23501.0, 23508.0, 23540.0, 23540.0, 23523.0, 23527.0, 23518.0, 23507.0, 23495.0, 23466.0, 23449.0, 23454.0, 23465.0, 23484.0, 23469.0, 23466.0, 23473.0, 23447.0, 23456.0, 23449.0, 23460.0, 23450.0, 23434.0, 23434.0, 23452.0, 23460.0, 23456.0, 23439.0, 23423.0, 23429.0, 23438.0, 23461.0, 23461.0, 23459.0, 23454.0, 23428.0, 23405.0, 23413.0, 23403.0, 23404.0, 23374.0, 23393.0, 23409.0, 23415.0, 23387.0, 23375.0, 23375.0, 23452.0, 23499.0, 23488.0, 23451.0, 23416.0, 23377.0, 23318.0, 23306.0, 23334.0, 23373.0, 23411.0, 23396.0, 23396.0, 23415.0, 23445.0, 23441.0, 23454.0, 23430.0, 23407.0, 23397.0, 23401.0, 23427.0, 23445.0, 23433.0, 23422.0, 23406.0]
    },
    "slices": {}
  }
}