{
  "AcquisitionMatrixPE": 104,
  "AcquisitionNumber": 1,
  "AcquisitionTime": "19:16:27.832500",
  "BandwidthPerPixelPhaseEncode": 17.17,
  "BaseResolution": 104,
  "BodyPartExamined": "BRAIN",
  "CoilCombinationMethod": "Sum of Squares",
  "ConsistencyInfo": "N4_VE11C_LATEST_20160120",
  "ConversionSoftware": "dcm2niix",
  "ConversionSoftwareVersion": "v1.0.20230411",
  "DerivedVendorReportedEchoSpacing": 0.000560011,
  "DeviceSerialNumber": "167006",
  "DwellTime": 2.1e-06,
  "EchoTime": 0.037,
  "EchoTime1": 0.037,
  "EchoTime2": 0.001,
  "EchoTrainLength": 104,
  "EffectiveEchoSpacing": 0.000560011,
  "FlipAngle": 52,
  "HeudiconvVersion": "0.5.3.post861+ge7d3c7f",
  "ImageComments": "Unaliased MB4/PE3/LB",
  "ImageOrientationPatientDICOM": [0.999484, -0.0243732, 0.0209017, 0.0305371, 0.92272, -0.384259],
  "ImageOrientationText": "Tra>Cor(-22.6)>Sag(0.6)",
  "ImageType": [
    "ORIGINAL",
    "PRIMARY",
    "P",
    "MB",
    "ND",
    "MOSAIC",
    "PHASE"
],
  "ImagingFrequency": 123.24969,
  "InPlanePhaseEncodingDirectionDICOM": "COL",
  "InstitutionAddress": "Chemin Queen-Mary 4565,Montreal,District,CA,H3W 1W5",
  "InstitutionName": "IUGM",
  "InstitutionalDepartmentName": "Department",
  "MRAcquisitionType": "2D",
  "MagneticFieldStrength": 3,
  "Manufacturer": "Siemens",
  "ManufacturersModelName": "Prisma_fit",
  "MatrixCoilMode": "SENSE",
  "Modality": "MR",
  "MultibandAccelerationFactor": 4,
  "NonlinearGradientCorrection": false,
  "PartialFourier": 1,
  "PatientPosition": "HFS",
  "PercentPhaseFOV": 100,
  "PercentSampling": 100,
  "PhaseEncodingDirection": "j",
  "PhaseEncodingSteps": 104,
  "PhaseResolution": 1,
  "PixelBandwidth": 2290,
  "ProcedureStepDescription": "localizers^retinotopy",
  "ProtocolName": "func_task-wedges",
  "PulseSequenceDetails": "%CustomerSeq%\\cmrr_mbep2d_bold",
  "ReceiveCoilActiveElements": "HC1-7;NC1,2",
  "ReceiveCoilName": "HeadNeck_64",
  "ReconMatrixPE": 104,
  "RepetitionTime": 1.49,
  "SAR": 0.0930623,
  "ScanOptions": "FS",
  "ScanningSequence": "EP",
  "SequenceName": "epfid2d1_104",
  "SequenceVariant": "SK\\SS",
  "SeriesDescription": "func_task-wedges",
  "SeriesNumber": 11,
  "ShimSetting": [591, -7284, -8807, 395, 5, -356, -43, 104],
  "SliceThickness": 2,
  "SliceTiming": [0, 0.7825, 0.0975, 0.88, 0.195, 0.98, 0.2925, 1.0775, 0.39, 1.175, 0.49, 1.2725, 0.5875, 1.37, 0.685, 0, 0.7825, 0.0975, 0.88, 0.195, 0.98, 0.2925, 1.0775, 0.39, 1.175, 0.49, 1.2725, 0.5875, 1.37, 0.685, 0, 0.7825, 0.0975, 0.88, 0.195, 0.98, 0.2925, 1.0775, 0.39, 1.175, 0.49, 1.2725, 0.5875, 1.37, 0.685, 0, 0.7825, 0.0975, 0.88, 0.195, 0.98, 0.2925, 1.0775, 0.39, 1.175, 0.49, 1.2725, 0.5875, 1.37, 0.685],
  "SoftwareVersions": "syngo MR E11",
  "SpacingBetweenSlices": 2,
  "StationName": "MRC35049",
  "TaskName": "wedges",
  "TotalReadoutTime": 0.0576811,
  "TxRefAmp": 326.603,
  "WipMemBlock": "c68f3ca1-5ad2-4e36-b1d6-21d56287e3db||Sequence: R017 ve11c/master r/75a17815+; Jun 28 2022 16:32:11 by eja",
  "dcmmeta_affine": [
    [-1.9989688396453857, 0.061074141412973404, 0.019841492176055908, 101.43678283691406],
    [0.04874645546078682, 1.8454400300979614, -0.7693990468978882, -69.25498962402344],
    [0.04180333390831947, 0.7685187458992004, 1.8459770679473877, -55.52455520629883],
    [0.0, 0.0, 0.0, 1.0]
],
  "dcmmeta_reorient_transform": [
    [0.0, -1.0, 0.0, 103.0],
    [1.0, 0.0, 0.0, 0.0],
    [0.0, 0.0, 1.0, 0.0],
    [0.0, 0.0, 0.0, 1.0]
],
  "dcmmeta_shape": [104, 104, 60, 202],
  "dcmmeta_slice_dim": 2,
  "dcmmeta_version": 0.6,
  "global": {
    "const": {
      "AcquisitionMatrix": [104, 0, 0, 104],
      "AngioFlag": "N",
      "BitsAllocated": 16,
      "BitsStored": 16,
      "BodyPartExamined": "BRAIN",
      "Columns": 832,
      "EchoNumbers": 1,
      "EchoTime": 37.0,
      "EchoTrainLength": 104,
      "FlipAngle": 52.0,
      "HighBit": 15,
      "ImageOrientationPatient": [0.99948440012994, -0.0243732271585, 0.02090166727277, 0.03053707088933, 0.92272001452569, -0.3842593682595],
      "ImagePositionPatient": [-857.58305219818, -774.82179729213, 288.15728283438],
      "ImageType": [
        "ORIGINAL",
        "PRIMARY",
        "P",
        "MB",
        "ND",
        "MOSAIC"
],
      "ImagedNucleus": "1H",
      "ImagingFrequency": 123.24969,
      "InPlanePhaseEncodingDirection": "COL",
      "LargestImagePixelValue": 4095,
      "MRAcquisitionType": "2D",
      "MagneticFieldStrength": 3.0,
      "Manufacturer": "SIEMENS",
      "ManufacturerModelName": "Prisma_fit",
      "Modality": "MR",
      "NumberOfAverages": 1.0,
      "NumberOfPhaseEncodingSteps": 104,
      "PercentPhaseFieldOfView": 100.0,
      "PercentSampling": 100.0,
      "PerformedProcedureStepStartTime": "191118.681000",
      "PhotometricInterpretation": "MONOCHROME2",
      "PixelBandwidth": 2290.0,
      "PixelRepresentation": 0,
      "PixelSpacing": [2.0, 2.0],
      "ProtocolName": "func_task-wedges",
      "RepetitionTime": 1490.0,
      "RescaleIntercept": -4096.0,
      "RescaleSlope": 2.0,
      "RescaleType": "US",
      "Rows": 832,
      "SAR": 0.09306231224286,
      "SamplesPerPixel": 1,
      "ScanOptions": "FS",
      "ScanningSequence": "EP",
      "SequenceName": "epfid2d1_104",
      "SequenceVariant": [
        "SK",
        "SS"
],
      "SeriesDescription": "func_task-wedges",
      "SeriesNumber": 11,
      "SeriesTime": "191743.617000",
      "SliceLocation": -23.599838052277,
      "SliceThickness": 2.0,
      "SmallestImagePixelValue": 0,
      "SoftwareVersions": "syngo MR E11",
      "SpacingBetweenSlices": 1.9999999927282,
      "SpecificCharacterSet": "ISO_IR 100",
      "StudyID": "1",
      "StudyTime": "191118.602000",
      "TransmitCoilName": "Body",
      "VariableFlipAngleFlag": "N",
      "WindowCenterWidthExplanation": "Algo1",
      "dBdt": 0.0},
    "slices": {}
  },
  "time": {
    "samples": {
      "AcquisitionNumber": [1, 2, 3, 4, 5, 6, 7, 8, 9, 10, 11, 12, 13, 14, 15, 16, 17, 18, 19, 20, 21, 22, 23, 24, 25, 26, 27, 28, 29, 30, 31, 32, 33, 34, 35, 36, 37, 38, 39, 40, 41, 42, 43, 44, 45, 46, 47, 48, 49, 50, 51, 52, 53, 54, 55, 56, 57, 58, 59, 60, 61, 62, 63, 64, 65, 66, 67, 68, 69, 70, 71, 72, 73, 74, 75, 76, 77, 78, 79, 80, 81, 82, 83, 84, 85, 86, 87, 88, 89, 90, 91, 92, 93, 94, 95, 96, 97, 98, 99, 100, 101, 102, 103, 104, 105, 106, 107, 108, 109, 110, 111, 112, 113, 114, 115, 116, 117, 118, 119, 120, 121, 122, 123, 124, 125, 126, 127, 128, 129, 130, 131, 132, 133, 134, 135, 136, 137, 138, 139, 140, 141, 142, 143, 144, 145, 146, 147, 148, 149, 150, 151, 152, 153, 154, 155, 156, 157, 158, 159, 160, 161, 162, 163, 164, 165, 166, 167, 168, 169, 170, 171, 172, 173, 174, 175, 176, 177, 178, 179, 180, 181, 182, 183, 184, 185, 186, 187, 188, 189, 190, 191, 192, 193, 194, 195, 196, 197, 198, 199, 200, 201, 202],
      "AcquisitionTime": ["191627.832500", "191629.322500", "191630.812500", "191632.302500", "191633.792500", "191635.282500", "191636.772500", "191638.262500", "191639.752500", "191641.242500", "191642.732500", "191644.222500", "191645.712500", "191647.202500", "191648.692500", "191650.182500", "191651.672500", "191653.162500", "191654.652500", "191656.142500", "191657.632500", "191659.122500", "191700.612500", "191702.102500", "191703.592500", "191705.082500", "191706.572500", "191708.062500", "191709.552500", "191711.042500", "191712.532500", "191714.022500", "191715.512500", "191717.002500", "191718.492500", "191719.982500", "191721.472500", "191722.962500", "191724.452500", "191725.942500", "191727.432500", "191728.922500", "191730.412500", "191731.902500", "191733.392500", "191734.882500", "191736.372500", "191737.862500", "191739.352500", "191740.842500", "191742.332500", "191743.822500", "191745.312500", "191746.802500", "191748.292500", "191749.782500", "191751.272500", "191752.762500", "191754.252500", "191755.742500", "191757.232500", "191758.722500", "191800.212500", "191801.702500", "191803.192500", "191804.682500", "191806.172500", "191807.662500", "191809.152500", "191810.642500", "191812.132500", "191813.622500", "191815.112500", "191816.602500", "191818.092500", "191819.582500", "191821.072500", "191822.562500", "191824.052500", "191825.542500", "191827.032500", "191828.522500", "191830.012500", "191831.502500", "191832.992500", "191834.482500", "191835.972500", "191837.462500", "191838.952500", "191840.442500", "191841.932500", "191843.422500", "191844.912500", "191846.402500", "191847.892500", "191849.382500", "191850.872500", "191852.362500", "191853.852500", "191855.342500", "191856.832500", "191858.322500", "191859.812500", "191901.302500", "191902.792500", "191904.282500", "191905.772500", "191907.262500", "191908.752500", "191910.242500", "191911.732500", "191913.222500", "191914.712500", "191916.202500", "191917.692500", "191919.182500", "191920.672500", "191922.162500", "191923.652500", "191925.142500", "191926.632500", "191928.122500", "191929.612500", "191931.102500", "191932.592500", "191934.082500", "191935.572500", "191937.062500", "191938.552500", "191940.042500", "191941.532500", "191943.022500", "191944.512500", "191946.002500", "191947.492500", "191948.982500", "191950.472500", "191951.962500", "191953.452500", "191954.942500", "191956.432500", "191957.922500", "191959.412500", "192000.902500", "192002.392500", "192003.882500", "192005.372500", "192006.862500", "192008.352500", "192009.842500", "192011.332500", "192012.822500", "192014.312500", "192015.802500", "192017.292500", "192018.782500", "192020.272500", "192021.762500", "192023.252500", "192024.742500", "192026.232500", "192027.722500", "192029.212500", "192030.702500", "192032.192500", "192033.682500", "192035.172500", "192036.662500", "192038.152500", "192039.642500", "192041.132500", "192042.622500", "192044.112500", "192045.602500", "192047.092500", "192048.582500", "192050.072500", "192051.562500", "192053.052500", "192054.542500", "192056.032500", "192057.522500", "192059.012500", "192100.502500", "192101.992500", "192103.482500", "192104.972500", "192106.462500", "192107.952500", "192109.442500", "192110.932500", "192112.422500", "192113.912500", "192115.402500", "192116.892500", "192118.382500", "192119.872500", "192121.362500", "192122.852500", "192124.342500", "192125.832500", "192127.322500"],
      "ContentTime": ["191743.619000", "191743.622000", "191743.625000", "191743.627000", "191743.630000", "191743.632000", "191743.635000", "191743.637000", "191743.640000", "191743.642000", "191743.645000", "191743.647000", "191743.650000", "191743.652000", "191743.655000", "191743.657000", "191743.660000", "191743.662000", "191743.665000", "191743.667000", "191743.670000", "191743.672000", "191743.675000", "191743.677000", "191743.680000", "191803.559000", "191803.562000", "191803.564000", "191803.567000", "191803.569000", "191803.572000", "191803.574000", "191803.577000", "191803.579000", "191803.582000", "191803.584000", "191803.587000", "191803.589000", "191803.592000", "191803.594000", "191803.597000", "191803.611000", "191803.614000", "191803.616000", "191803.619000", "191803.621000", "191823.545000", "191823.548000", "191823.550000", "191823.553000", "191823.555000", "191823.558000", "191823.560000", "191823.563000", "191823.565000", "191823.568000", "191823.570000", "191823.573000", "191823.575000", "191823.578000", "191823.581000", "191823.583000", "191823.586000", "191823.588000", "191823.591000", "191823.593000", "191843.560000", "191843.563000", "191843.566000", "191843.568000", "191843.571000", "191843.573000", "191843.576000", "191843.578000", "191843.581000", "191843.583000", "191843.586000", "191843.588000", "191843.591000", "191843.593000", "191843.596000", "191843.598000", "191843.601000", "191843.603000", "191843.606000", "191843.608000", "191923.629000", "191923.632000", "191923.635000", "191923.637000", "191923.640000", "191923.642000", "191923.645000", "191923.647000", "191923.650000", "191923.652000", "191923.655000", "191923.657000", "191923.660000", "191923.662000", "191923.665000", "191923.667000", "191923.670000", "191923.672000", "191923.675000", "191923.677000", "191923.680000", "191923.682000", "191923.685000", "191923.687000", "191923.690000", "191923.692000", "191923.695000", "191923.697000", "191923.700000", "192003.571000", "192003.574000", "192003.577000", "192003.580000", "192003.582000", "192003.585000", "192003.587000", "192003.590000", "192003.592000", "192003.595000", "192003.597000", "192003.600000", "192003.602000", "192003.605000", "192003.607000", "192003.610000", "192003.612000", "192003.615000", "192003.617000", "192003.620000", "192003.622000", "192003.625000", "192003.627000", "192003.630000", "192003.632000", "192003.635000", "192003.637000", "192043.600000", "192043.603000", "192043.605000", "192043.608000", "192043.610000", "192043.613000", "192043.615000", "192043.618000", "192043.620000", "192043.623000", "192043.625000", "192043.628000", "192043.630000", "192043.633000", "192043.635000", "192043.638000", "192043.640000", "192043.643000", "192043.645000", "192043.648000", "192043.650000", "192043.653000", "192043.655000", "192043.658000", "192043.660000", "192043.663000", "192043.665000", "192123.594000", "192123.597000", "192123.600000", "192123.602000", "192123.605000", "192123.607000", "192123.610000", "192123.612000", "192123.615000", "192123.617000", "192123.620000", "192123.622000", "192123.625000", "192123.628000", "192123.630000", "192123.633000", "192123.635000", "192123.638000", "192123.640000", "192123.643000", "192123.645000", "192123.648000", "192123.650000", "192123.653000", "192123.655000", "192123.658000", "192123.660000", "192131.695000", "192131.698000", "192131.700000", "192131.703000", "192131.705000", "192131.708000"],
      "InstanceCreationTime": ["191743.619000", "191743.622000", "191743.625000", "191743.627000", "191743.630000", "191743.632000", "191743.635000", "191743.637000", "191743.640000", "191743.642000", "191743.645000", "191743.647000", "191743.650000", "191743.652000", "191743.655000", "191743.657000", "191743.660000", "191743.662000", "191743.665000", "191743.667000", "191743.670000", "191743.672000", "191743.675000", "191743.677000", "191743.680000", "191803.559000", "191803.562000", "191803.564000", "191803.567000", "191803.569000", "191803.572000", "191803.574000", "191803.577000", "191803.579000", "191803.582000", "191803.584000", "191803.587000", "191803.589000", "191803.592000", "191803.594000", "191803.597000", "191803.611000", "191803.614000", "191803.616000", "191803.619000", "191803.621000", "191823.545000", "191823.548000", "191823.550000", "191823.553000", "191823.555000", "191823.558000", "191823.560000", "191823.563000", "191823.565000", "191823.568000", "191823.570000", "191823.573000", "191823.575000", "191823.578000", "191823.581000", "191823.583000", "191823.586000", "191823.588000", "191823.591000", "191823.593000", "191843.560000", "191843.563000", "191843.566000", "191843.568000", "191843.571000", "191843.573000", "191843.576000", "191843.578000", "191843.581000", "191843.583000", "191843.586000", "191843.588000", "191843.591000", "191843.593000", "191843.596000", "191843.598000", "191843.601000", "191843.603000", "191843.606000", "191843.608000", "191923.629000", "191923.632000", "191923.635000", "191923.637000", "191923.640000", "191923.642000", "191923.645000", "191923.647000", "191923.650000", "191923.652000", "191923.655000", "191923.657000", "191923.660000", "191923.662000", "191923.665000", "191923.667000", "191923.670000", "191923.672000", "191923.675000", "191923.677000", "191923.680000", "191923.682000", "191923.685000", "191923.687000", "191923.690000", "191923.692000", "191923.695000", "191923.697000", "191923.700000", "192003.571000", "192003.574000", "192003.577000", "192003.580000", "192003.582000", "192003.585000", "192003.587000", "192003.590000", "192003.592000", "192003.595000", "192003.597000", "192003.600000", "192003.602000", "192003.605000", "192003.607000", "192003.610000", "192003.612000", "192003.615000", "192003.617000", "192003.620000", "192003.622000", "192003.625000", "192003.627000", "192003.630000", "192003.632000", "192003.635000", "192003.637000", "192043.600000", "192043.603000", "192043.605000", "192043.608000", "192043.610000", "192043.613000", "192043.615000", "192043.618000", "192043.620000", "192043.623000", "192043.625000", "192043.628000", "192043.630000", "192043.633000", "192043.635000", "192043.638000", "192043.640000", "192043.643000", "192043.645000", "192043.648000", "192043.650000", "192043.653000", "192043.655000", "192043.658000", "192043.660000", "192043.663000", "192043.665000", "192123.594000", "192123.597000", "192123.600000", "192123.602000", "192123.605000", "192123.607000", "192123.610000", "192123.612000", "192123.615000", "192123.617000", "192123.620000", "192123.622000", "192123.625000", "192123.628000", "192123.630000", "192123.633000", "192123.635000", "192123.638000", "192123.640000", "192123.643000", "192123.645000", "192123.648000", "192123.650000", "192123.653000", "192123.655000", "192123.658000", "192123.660000", "192131.695000", "192131.698000", "192131.700000", "192131.703000", "192131.705000", "192131.708000"],
      "InstanceNumber": [1, 2, 3, 4, 5, 6, 7, 8, 9, 10, 11, 12, 13, 14, 15, 16, 17, 18, 19, 20, 21, 22, 23, 24, 25, 26, 27, 28, 29, 30, 31, 32, 33, 34, 35, 36, 37, 38, 39, 40, 41, 42, 43, 44, 45, 46, 47, 48, 49, 50, 51, 52, 53, 54, 55, 56, 57, 58, 59, 60, 61, 62, 63, 64, 65, 66, 67, 68, 69, 70, 71, 72, 73, 74, 75, 76, 77, 78, 79, 80, 81, 82, 83, 84, 85, 86, 87, 88, 89, 90, 91, 92, 93, 94, 95, 96, 97, 98, 99, 100, 101, 102, 103, 104, 105, 106, 107, 108, 109, 110, 111, 112, 113, 114, 115, 116, 117, 118, 119, 120, 121, 122, 123, 124, 125, 126, 127, 128, 129, 130, 131, 132, 133, 134, 135, 136, 137, 138, 139, 140, 141, 142, 143, 144, 145, 146, 147, 148, 149, 150, 151, 152, 153, 154, 155, 156, 157, 158, 159, 160, 161, 162, 163, 164, 165, 166, 167, 168, 169, 170, 171, 172, 173, 174, 175, 176, 177, 178, 179, 180, 181, 182, 183, 184, 185, 186, 187, 188, 189, 190, 191, 192, 193, 194, 195, 196, 197, 198, 199, 200, 201, 202],
      "WindowCenter": [4776.0, 4772.0, 4806.0, 4774.0, 4800.0, 4796.0, 4778.0, 4770.0, 4768.0, 4764.0, 4768.0, 4768.0, 4776.0, 4778.0, 4800.0, 4780.0, 4806.0, 4836.0, 4808.0, 4770.0, 4762.0, 4766.0, 4762.0, 4768.0, 4772.0, 4778.0, 4806.0, 4812.0, 4810.0, 4802.0, 4774.0, 4770.0, 4764.0, 4764.0, 4764.0, 4772.0, 4772.0, 4780.0, 4806.0, 4804.0, 4778.0, 4770.0, 4774.0, 4768.0, 4768.0, 4776.0, 4776.0, 4774.0, 4778.0, 4804.0, 4776.0, 4776.0, 4776.0, 4776.0, 4772.0, 4770.0, 4770.0, 4774.0, 4772.0, 4776.0, 4780.0, 4776.0, 4810.0, 4806.0, 4800.0, 4772.0, 4768.0, 4766.0, 4770.0, 4776.0, 4778.0, 4778.0, 4810.0, 4810.0, 4802.0, 4776.0, 4772.0, 4766.0, 4770.0, 4770.0, 4770.0, 4806.0, 4802.0, 4804.0, 4802.0, 4802.0, 4776.0, 4776.0, 4774.0, 4772.0, 4772.0, 4800.0, 4772.0, 4776.0, 4802.0, 4800.0, 4802.0, 4776.0, 4802.0, 4776.0, 4800.0, 4834.0, 4832.0, 4800.0, 4766.0, 4764.0, 4762.0, 4764.0, 4776.0, 4802.0, 4808.0, 4810.0, 4808.0, 4834.0, 4808.0, 4772.0, 4772.0, 4768.0, 4772.0, 4768.0, 4774.0, 4778.0, 4802.0, 4802.0, 4802.0, 4802.0, 4778.0, 4778.0, 4774.0, 4774.0, 4772.0, 4774.0, 4776.0, 4776.0, 4776.0, 4778.0, 4778.0, 4778.0, 4778.0, 4798.0, 4780.0, 4772.0, 4778.0, 4774.0, 4772.0, 4776.0, 4774.0, 4800.0, 4802.0, 4778.0, 4780.0, 4776.0, 4800.0, 4778.0, 4776.0, 4772.0, 4776.0, 4778.0, 4774.0, 4778.0, 4800.0, 4806.0, 4806.0, 4774.0, 4780.0, 4774.0, 4774.0, 4776.0, 4776.0, 4776.0, 4780.0, 4802.0, 4780.0, 4778.0, 4804.0, 4776.0, 4774.0, 4770.0, 4778.0, 4772.0, 4776.0, 4800.0, 4778.0, 4778.0, 4802.0, 4804.0, 4776.0, 4778.0, 4776.0, 4778.0, 4780.0, 4800.0, 4776.0, 4774.0, 4778.0, 4774.0, 4802.0, 4778.0, 4778.0, 4802.0, 4776.0, 4774.0],
      "WindowWidth": [18514.0, 18512.0, 18532.0, 18508.0, 18534.0, 18544.0, 18500.0, 18522.0, 18518.0, 18522.0, 18516.0, 18518.0, 18510.0, 18510.0, 18534.0, 18502.0, 18534.0, 18556.0, 18528.0, 18522.0, 18542.0, 18544.0, 18538.0, 18526.0, 18516.0, 18506.0, 18528.0, 18518.0, 18524.0, 18532.0, 18504.0, 18516.0, 18520.0, 18522.0, 18518.0, 18514.0, 18506.0, 18506.0, 18528.0, 18530.0, 18500.0, 18506.0, 18520.0, 18518.0, 18524.0, 18504.0, 18516.0, 18500.0, 18518.0, 18534.0, 18506.0, 18512.0, 18510.0, 18514.0, 18504.0, 18514.0, 18512.0, 18510.0, 18502.0, 18510.0, 18504.0, 18512.0, 18526.0, 18528.0, 18536.0, 18528.0, 18528.0, 18528.0, 18526.0, 18512.0, 18510.0, 18500.0, 18532.0, 18518.0, 18530.0, 18514.0, 18516.0, 18520.0, 18526.0, 18524.0, 18516.0, 18532.0, 18532.0, 18526.0, 18530.0, 18532.0, 18514.0, 18508.0, 18514.0, 18512.0, 18522.0, 18544.0, 18506.0, 18506.0, 18544.0, 18536.0, 18532.0, 18506.0, 18534.0, 18512.0, 18534.0, 18552.0, 18554.0, 18538.0, 18532.0, 18538.0, 18530.0, 18528.0, 18516.0, 18536.0, 18532.0, 18530.0, 18534.0, 18554.0, 18540.0, 18510.0, 18522.0, 18522.0, 18526.0, 18518.0, 18516.0, 18502.0, 18540.0, 18532.0, 18534.0, 18526.0, 18510.0, 18502.0, 18518.0, 18504.0, 18518.0, 18508.0, 18514.0, 18514.0, 18510.0, 18506.0, 18508.0, 18502.0, 18508.0, 18538.0, 18510.0, 18512.0, 18504.0, 18512.0, 18506.0, 18506.0, 18514.0, 18538.0, 18540.0, 18508.0, 18504.0, 18510.0, 18532.0, 18514.0, 18504.0, 18512.0, 18506.0, 18510.0, 18512.0, 18506.0, 18542.0, 18530.0, 18532.0, 18510.0, 18516.0, 18514.0, 18516.0, 18514.0, 18516.0, 18514.0, 18508.0, 18538.0, 18498.0, 18506.0, 18540.0, 18512.0, 18504.0, 18512.0, 18508.0, 18520.0, 18508.0, 18542.0, 18508.0, 18506.0, 18536.0, 18530.0, 18510.0, 18504.0, 18504.0, 18508.0, 18506.0, 18550.0, 18508.0, 18518.0, 18512.0, 18510.0, 18540.0, 18508.0, 18504.0, 18532.0, 18508.0, 18510.0]
    },
    "slices": {}
  }
}