{
  "AcquisitionMatrixPE": 104,
  "AcquisitionNumber": 1,
  "AcquisitionTime": "19:32:51.862500",
  "BandwidthPerPixelPhaseEncode": 17.17,
  "BaseResolution": 104,
  "BodyPartExamined": "BRAIN",
  "CoilCombinationMethod": "Sum of Squares",
  "ConsistencyInfo": "N4_VE11C_LATEST_20160120",
  "ConversionSoftware": "dcm2niix",
  "ConversionSoftwareVersion": "v1.0.20230411",
  "DerivedVendorReportedEchoSpacing": 0.000560011,
  "DeviceSerialNumber": "167006",
  "DwellTime": 2.1e-06,
  "EchoTime": 0.037,
  "EchoTime1": 0.037,
  "EchoTime2": 0.001,
  "EchoTrainLength": 104,
  "EffectiveEchoSpacing": 0.000560011,
  "FlipAngle": 52,
  "HeudiconvVersion": "0.5.3.post861+ge7d3c7f",
  "ImageComments": "Unaliased MB4/PE3/LB",
  "ImageOrientationPatientDICOM": [0.999484, -0.0243732, 0.0209017, 0.0305371, 0.92272, -0.384259],
  "ImageOrientationText": "Tra>Cor(-22.6)>Sag(0.6)",
  "ImageType": [
    "ORIGINAL",
    "PRIMARY",
    "P",
    "MB",
    "ND",
    "MOSAIC",
    "PHASE"
],
  "ImagingFrequency": 123.249692,
  "InPlanePhaseEncodingDirectionDICOM": "COL",
  "InstitutionAddress": "Chemin Queen-Mary 4565,Montreal,District,CA,H3W 1W5",
  "InstitutionName": "IUGM",
  "InstitutionalDepartmentName": "Department",
  "MRAcquisitionType": "2D",
  "MagneticFieldStrength": 3,
  "Manufacturer": "Siemens",
  "ManufacturersModelName": "Prisma_fit",
  "MatrixCoilMode": "SENSE",
  "Modality": "MR",
  "MultibandAccelerationFactor": 4,
  "NonlinearGradientCorrection": false,
  "PartialFourier": 1,
  "PatientPosition": "HFS",
  "PercentPhaseFOV": 100,
  "PercentSampling": 100,
  "PhaseEncodingDirection": "j",
  "PhaseEncodingSteps": 104,
  "PhaseResolution": 1,
  "PixelBandwidth": 2290,
  "ProcedureStepDescription": "localizers^retinotopy",
  "ProtocolName": "func_task-bars",
  "PulseSequenceDetails": "%CustomerSeq%\\cmrr_mbep2d_bold",
  "ReceiveCoilActiveElements": "HC1-7;NC1,2",
  "ReceiveCoilName": "HeadNeck_64",
  "ReconMatrixPE": 104,
  "RepetitionTime": 1.49,
  "SAR": 0.0930623,
  "ScanOptions": "FS",
  "ScanningSequence": "EP",
  "SequenceName": "epfid2d1_104",
  "SequenceVariant": "SK\\SS",
  "SeriesDescription": "func_task-bars",
  "SeriesNumber": 20,
  "ShimSetting": [591, -7284, -8807, 395, 5, -356, -43, 104],
  "SliceThickness": 2,
  "SliceTiming": [0, 0.785, 0.0975, 0.8825, 0.1975, 0.98, 0.295, 1.0775, 0.3925, 1.1775, 0.49, 1.275, 0.5875, 1.3725, 0.6875, 0, 0.785, 0.0975, 0.8825, 0.1975, 0.98, 0.295, 1.0775, 0.3925, 1.1775, 0.49, 1.275, 0.5875, 1.3725, 0.6875, 0, 0.785, 0.0975, 0.8825, 0.1975, 0.98, 0.295, 1.0775, 0.3925, 1.1775, 0.49, 1.275, 0.5875, 1.3725, 0.6875, 0, 0.785, 0.0975, 0.8825, 0.1975, 0.98, 0.295, 1.0775, 0.3925, 1.1775, 0.49, 1.275, 0.5875, 1.3725, 0.6875],
  "SoftwareVersions": "syngo MR E11",
  "SpacingBetweenSlices": 2,
  "StationName": "MRC35049",
  "TaskName": "bars",
  "TotalReadoutTime": 0.0576811,
  "TxRefAmp": 326.603,
  "WipMemBlock": "c5fc4501-2ea9-4237-a635-ee2492bfa0a5||Sequence: R017 ve11c/master r/75a17815+; Jun 28 2022 16:32:11 by eja",
  "dcmmeta_affine": [
    [-1.9989688396453857, 0.061074141412973404, 0.019841492176055908, 101.43678283691406],
    [0.04874645546078682, 1.8454400300979614, -0.7693990468978882, -69.25498962402344],
    [0.04180333390831947, 0.7685187458992004, 1.8459770679473877, -55.52455520629883],
    [0.0, 0.0, 0.0, 1.0]
],
  "dcmmeta_reorient_transform": [
    [0.0, -1.0, 0.0, 103.0],
    [1.0, 0.0, 0.0, 0.0],
    [0.0, 0.0, 1.0, 0.0],
    [0.0, 0.0, 0.0, 1.0]
],
  "dcmmeta_shape": [104, 104, 60, 202],
  "dcmmeta_slice_dim": 2,
  "dcmmeta_version": 0.6,
  "global": {
    "const": {
      "AcquisitionMatrix": [104, 0, 0, 104],
      "AngioFlag": "N",
      "BitsAllocated": 16,
      "BitsStored": 16,
      "BodyPartExamined": "BRAIN",
      "Columns": 832,
      "EchoNumbers": 1,
      "EchoTime": 37.0,
      "EchoTrainLength": 104,
      "FlipAngle": 52.0,
      "HighBit": 15,
      "ImageOrientationPatient": [0.99948440012994, -0.0243732271585, 0.02090166727277, 0.03053707088933, 0.92272001452569, -0.3842593682595],
      "ImagePositionPatient": [-857.58305219818, -774.82179729213, 288.15728283438],
      "ImageType": [
        "ORIGINAL",
        "PRIMARY",
        "P",
        "MB",
        "ND",
        "MOSAIC"
],
      "ImagedNucleus": "1H",
      "ImagingFrequency": 123.249692,
      "InPlanePhaseEncodingDirection": "COL",
      "LargestImagePixelValue": 4095,
      "MRAcquisitionType": "2D",
      "MagneticFieldStrength": 3.0,
      "Manufacturer": "SIEMENS",
      "ManufacturerModelName": "Prisma_fit",
      "Modality": "MR",
      "NumberOfAverages": 1.0,
      "NumberOfPhaseEncodingSteps": 104,
      "PercentPhaseFieldOfView": 100.0,
      "PercentSampling": 100.0,
      "PerformedProcedureStepStartTime": "191118.681000",
      "PhotometricInterpretation": "MONOCHROME2",
      "PixelBandwidth": 2290.0,
      "PixelRepresentation": 0,
      "PixelSpacing": [2.0, 2.0],
      "ProtocolName": "func_task-bars",
      "RepetitionTime": 1490.0,
      "RescaleIntercept": -4096.0,
      "RescaleSlope": 2.0,
      "RescaleType": "US",
      "Rows": 832,
      "SAR": 0.09306231224286,
      "SamplesPerPixel": 1,
      "ScanOptions": "FS",
      "ScanningSequence": "EP",
      "SequenceName": "epfid2d1_104",
      "SequenceVariant": [
        "SK",
        "SS"
],
      "SeriesDescription": "func_task-bars",
      "SeriesNumber": 20,
      "SeriesTime": "193404.165000",
      "SliceLocation": -23.599838052277,
      "SliceThickness": 2.0,
      "SmallestImagePixelValue": 0,
      "SoftwareVersions": "syngo MR E11",
      "SpacingBetweenSlices": 1.9999999927282,
      "SpecificCharacterSet": "ISO_IR 100",
      "StudyID": "1",
      "StudyTime": "191118.602000",
      "TransmitCoilName": "Body",
      "VariableFlipAngleFlag": "N",
      "WindowCenterWidthExplanation": "Algo1",
      "dBdt": 0.0},
    "slices": {}
  },
  "time": {
    "samples": {
      "AcquisitionNumber": [1, 2, 3, 4, 5, 6, 7, 8, 9, 10, 11, 12, 13, 14, 15, 16, 17, 18, 19, 20, 21, 22, 23, 24, 25, 26, 27, 28, 29, 30, 31, 32, 33, 34, 35, 36, 37, 38, 39, 40, 41, 42, 43, 44, 45, 46, 47, 48, 49, 50, 51, 52, 53, 54, 55, 56, 57, 58, 59, 60, 61, 62, 63, 64, 65, 66, 67, 68, 69, 70, 71, 72, 73, 74, 75, 76, 77, 78, 79, 80, 81, 82, 83, 84, 85, 86, 87, 88, 89, 90, 91, 92, 93, 94, 95, 96, 97, 98, 99, 100, 101, 102, 103, 104, 105, 106, 107, 108, 109, 110, 111, 112, 113, 114, 115, 116, 117, 118, 119, 120, 121, 122, 123, 124, 125, 126, 127, 128, 129, 130, 131, 132, 133, 134, 135, 136, 137, 138, 139, 140, 141, 142, 143, 144, 145, 146, 147, 148, 149, 150, 151, 152, 153, 154, 155, 156, 157, 158, 159, 160, 161, 162, 163, 164, 165, 166, 167, 168, 169, 170, 171, 172, 173, 174, 175, 176, 177, 178, 179, 180, 181, 182, 183, 184, 185, 186, 187, 188, 189, 190, 191, 192, 193, 194, 195, 196, 197, 198, 199, 200, 201, 202],
      "AcquisitionTime": ["193251.862500", "193253.352500", "193254.842500", "193256.332500", "193257.822500", "193259.312500", "193300.802500", "193302.292500", "193303.782500", "193305.272500", "193306.762500", "193308.252500", "193309.742500", "193311.232500", "193312.722500", "193314.212500", "193315.702500", "193317.192500", "193318.682500", "193320.172500", "193321.662500", "193323.152500", "193324.642500", "193326.132500", "193327.622500", "193329.112500", "193330.602500", "193332.092500", "193333.582500", "193335.072500", "193336.562500", "193338.052500", "193339.542500", "193341.032500", "193342.522500", "193344.012500", "193345.502500", "193346.992500", "193348.482500", "193349.972500", "193351.462500", "193352.952500", "193354.442500", "193355.932500", "193357.422500", "193358.912500", "193400.402500", "193401.892500", "193403.382500", "193404.872500", "193406.362500", "193407.852500", "193409.342500", "193410.832500", "193412.322500", "193413.812500", "193415.302500", "193416.792500", "193418.282500", "193419.772500", "193421.262500", "193422.752500", "193424.242500", "193425.732500", "193427.222500", "193428.712500", "193430.202500", "193431.692500", "193433.182500", "193434.672500", "193436.162500", "193437.652500", "193439.142500", "193440.632500", "193442.122500", "193443.612500", "193445.102500", "193446.592500", "193448.082500", "193449.572500", "193451.062500", "193452.552500", "193454.042500", "193455.532500", "193457.022500", "193458.512500", "193500.002500", "193501.492500", "193502.982500", "193504.472500", "193505.962500", "193507.452500", "193508.942500", "193510.432500", "193511.922500", "193513.412500", "193514.902500", "193516.392500", "193517.882500", "193519.372500", "193520.862500", "193522.352500", "193523.842500", "193525.332500", "193526.822500", "193528.312500", "193529.802500", "193531.292500", "193532.782500", "193534.272500", "193535.762500", "193537.252500", "193538.742500", "193540.232500", "193541.722500", "193543.212500", "193544.702500", "193546.192500", "193547.682500", "193549.172500", "193550.662500", "193552.152500", "193553.642500", "193555.132500", "193556.622500", "193558.112500", "193559.602500", "193601.092500", "193602.582500", "193604.072500", "193605.562500", "193607.052500", "193608.542500", "193610.032500", "193611.522500", "193613.012500", "193614.502500", "193615.992500", "193617.482500", "193618.972500", "193620.462500", "193621.952500", "193623.442500", "193624.932500", "193626.422500", "193627.912500", "193629.402500", "193630.892500", "193632.382500", "193633.872500", "193635.362500", "193636.852500", "193638.342500", "193639.832500", "193641.322500", "193642.812500", "193644.302500", "193645.792500", "193647.282500", "193648.772500", "193650.262500", "193651.752500", "193653.242500", "193654.732500", "193656.222500", "193657.712500", "193659.202500", "193700.692500", "193702.182500", "193703.672500", "193705.162500", "193706.652500", "193708.142500", "193709.632500", "193711.122500", "193712.612500", "193714.102500", "193715.592500", "193717.082500", "193718.572500", "193720.062500", "193721.552500", "193723.042500", "193724.532500", "193726.022500", "193727.512500", "193729.002500", "193730.492500", "193731.982500", "193733.472500", "193734.962500", "193736.452500", "193737.942500", "193739.432500", "193740.922500", "193742.412500", "193743.902500", "193745.392500", "193746.882500", "193748.372500", "193749.862500", "193751.352500"],
      "ContentTime": ["193404.167000", "193404.170000", "193404.175000", "193404.177000", "193404.180000", "193404.182000", "193404.185000", "193404.187000", "193404.190000", "193404.192000", "193404.195000", "193404.197000", "193404.200000", "193404.202000", "193404.205000", "193404.207000", "193404.210000", "193404.213000", "193404.215000", "193404.218000", "193423.553000", "193423.556000", "193423.558000", "193423.561000", "193423.563000", "193423.566000", "193423.568000", "193423.571000", "193423.573000", "193423.576000", "193423.578000", "193423.581000", "193423.583000", "193423.586000", "193423.588000", "193423.591000", "193423.593000", "193423.596000", "193423.598000", "193423.601000", "193443.574000", "193443.577000", "193443.579000", "193443.582000", "193443.584000", "193443.587000", "193443.589000", "193443.592000", "193443.594000", "193443.597000", "193443.599000", "193443.602000", "193443.604000", "193443.606000", "193443.609000", "193443.611000", "193443.614000", "193443.616000", "193443.619000", "193443.621000", "193443.624000", "193503.561000", "193503.563000", "193503.566000", "193503.568000", "193503.571000", "193503.573000", "193503.576000", "193503.578000", "193503.581000", "193503.583000", "193503.586000", "193503.588000", "193503.591000", "193503.593000", "193503.596000", "193503.598000", "193503.601000", "193503.603000", "193503.606000", "193503.608000", "193543.607000", "193543.610000", "193543.612000", "193543.615000", "193543.617000", "193543.625000", "193543.628000", "193543.630000", "193543.633000", "193543.635000", "193543.638000", "193543.640000", "193543.643000", "193543.645000", "193543.648000", "193543.650000", "193543.653000", "193543.655000", "193543.658000", "193543.660000", "193543.663000", "193543.665000", "193543.668000", "193543.670000", "193543.673000", "193543.676000", "193543.678000", "193543.681000", "193543.683000", "193543.686000", "193543.688000", "193623.584000", "193623.587000", "193623.589000", "193623.592000", "193623.594000", "193623.597000", "193623.599000", "193623.602000", "193623.604000", "193623.607000", "193623.609000", "193623.612000", "193623.615000", "193623.617000", "193623.620000", "193623.622000", "193623.625000", "193623.627000", "193623.630000", "193623.632000", "193623.635000", "193623.637000", "193623.640000", "193623.642000", "193623.645000", "193623.647000", "193623.650000", "193703.583000", "193703.586000", "193703.589000", "193703.591000", "193703.594000", "193703.596000", "193703.599000", "193703.601000", "193703.604000", "193703.606000", "193703.609000", "193703.616000", "193703.618000", "193703.621000", "193703.623000", "193703.626000", "193703.629000", "193703.631000", "193703.634000", "193703.636000", "193703.639000", "193703.641000", "193703.644000", "193703.646000", "193703.649000", "193703.651000", "193703.654000", "193743.584000", "193743.587000", "193743.589000", "193743.592000", "193743.594000", "193743.597000", "193743.599000", "193743.602000", "193743.604000", "193743.607000", "193743.609000", "193743.612000", "193743.614000", "193743.617000", "193743.619000", "193743.622000", "193743.624000", "193743.627000", "193743.629000", "193743.632000", "193743.634000", "193743.637000", "193743.639000", "193743.642000", "193743.644000", "193743.647000", "193743.649000", "193756.182000", "193756.184000", "193756.187000", "193756.189000", "193756.192000", "193756.195000", "193756.197000", "193756.200000", "193756.202000"],
      "InstanceCreationTime": ["193404.167000", "193404.170000", "193404.175000", "193404.177000", "193404.180000", "193404.182000", "193404.185000", "193404.187000", "193404.190000", "193404.192000", "193404.195000", "193404.197000", "193404.200000", "193404.202000", "193404.205000", "193404.207000", "193404.210000", "193404.213000", "193404.215000", "193404.218000", "193423.553000", "193423.556000", "193423.558000", "193423.561000", "193423.563000", "193423.566000", "193423.568000", "193423.571000", "193423.573000", "193423.576000", "193423.578000", "193423.581000", "193423.583000", "193423.586000", "193423.588000", "193423.591000", "193423.593000", "193423.596000", "193423.598000", "193423.601000", "193443.574000", "193443.577000", "193443.579000", "193443.582000", "193443.584000", "193443.587000", "193443.589000", "193443.592000", "193443.594000", "193443.597000", "193443.599000", "193443.602000", "193443.604000", "193443.606000", "193443.609000", "193443.611000", "193443.614000", "193443.616000", "193443.619000", "193443.621000", "193443.624000", "193503.561000", "193503.563000", "193503.566000", "193503.568000", "193503.571000", "193503.573000", "193503.576000", "193503.578000", "193503.581000", "193503.583000", "193503.586000", "193503.588000", "193503.591000", "193503.593000", "193503.596000", "193503.598000", "193503.601000", "193503.603000", "193503.606000", "193503.608000", "193543.607000", "193543.610000", "193543.612000", "193543.615000", "193543.617000", "193543.625000", "193543.628000", "193543.630000", "193543.633000", "193543.635000", "193543.638000", "193543.640000", "193543.643000", "193543.645000", "193543.648000", "193543.650000", "193543.653000", "193543.655000", "193543.658000", "193543.660000", "193543.663000", "193543.665000", "193543.668000", "193543.670000", "193543.673000", "193543.676000", "193543.678000", "193543.681000", "193543.683000", "193543.686000", "193543.688000", "193623.584000", "193623.587000", "193623.589000", "193623.592000", "193623.594000", "193623.597000", "193623.599000", "193623.602000", "193623.604000", "193623.607000", "193623.609000", "193623.612000", "193623.615000", "193623.617000", "193623.620000", "193623.622000", "193623.625000", "193623.627000", "193623.630000", "193623.632000", "193623.635000", "193623.637000", "193623.640000", "193623.642000", "193623.645000", "193623.647000", "193623.650000", "193703.583000", "193703.586000", "193703.589000", "193703.591000", "193703.594000", "193703.596000", "193703.599000", "193703.601000", "193703.604000", "193703.606000", "193703.609000", "193703.616000", "193703.618000", "193703.621000", "193703.623000", "193703.626000", "193703.629000", "193703.631000", "193703.634000", "193703.636000", "193703.639000", "193703.641000", "193703.644000", "193703.646000", "193703.649000", "193703.651000", "193703.654000", "193743.584000", "193743.587000", "193743.589000", "193743.592000", "193743.594000", "193743.597000", "193743.599000", "193743.602000", "193743.604000", "193743.607000", "193743.609000", "193743.612000", "193743.614000", "193743.617000", "193743.619000", "193743.622000", "193743.624000", "193743.627000", "193743.629000", "193743.632000", "193743.634000", "193743.637000", "193743.639000", "193743.642000", "193743.644000", "193743.647000", "193743.649000", "193756.182000", "193756.184000", "193756.187000", "193756.189000", "193756.192000", "193756.195000", "193756.197000", "193756.200000", "193756.202000"],
      "InstanceNumber": [1, 2, 3, 4, 5, 6, 7, 8, 9, 10, 11, 12, 13, 14, 15, 16, 17, 18, 19, 20, 21, 22, 23, 24, 25, 26, 27, 28, 29, 30, 31, 32, 33, 34, 35, 36, 37, 38, 39, 40, 41, 42, 43, 44, 45, 46, 47, 48, 49, 50, 51, 52, 53, 54, 55, 56, 57, 58, 59, 60, 61, 62, 63, 64, 65, 66, 67, 68, 69, 70, 71, 72, 73, 74, 75, 76, 77, 78, 79, 80, 81, 82, 83, 84, 85, 86, 87, 88, 89, 90, 91, 92, 93, 94, 95, 96, 97, 98, 99, 100, 101, 102, 103, 104, 105, 106, 107, 108, 109, 110, 111, 112, 113, 114, 115, 116, 117, 118, 119, 120, 121, 122, 123, 124, 125, 126, 127, 128, 129, 130, 131, 132, 133, 134, 135, 136, 137, 138, 139, 140, 141, 142, 143, 144, 145, 146, 147, 148, 149, 150, 151, 152, 153, 154, 155, 156, 157, 158, 159, 160, 161, 162, 163, 164, 165, 166, 167, 168, 169, 170, 171, 172, 173, 174, 175, 176, 177, 178, 179, 180, 181, 182, 183, 184, 185, 186, 187, 188, 189, 190, 191, 192, 193, 194, 195, 196, 197, 198, 199, 200, 201, 202],
      "WindowCenter": [4768.0, 4772.0, 4778.0, 4770.0, 4774.0, 4774.0, 4778.0, 4772.0, 4774.0, 4764.0, 4770.0, 4772.0, 4768.0, 4776.0, 4770.0, 4774.0, 4774.0, 4776.0, 4778.0, 4778.0, 4770.0, 4798.0, 4772.0, 4774.0, 4772.0, 4766.0, 4768.0, 4770.0, 4770.0, 4774.0, 4776.0, 4774.0, 4774.0, 4776.0, 4772.0, 4772.0, 4768.0, 4778.0, 4774.0, 4776.0, 4776.0, 4776.0, 4772.0, 4768.0, 4770.0, 4770.0, 4774.0, 4774.0, 4774.0, 4772.0, 4778.0, 4806.0, 4774.0, 4774.0, 4772.0, 4774.0, 4772.0, 4774.0, 4772.0, 4802.0, 4776.0, 4802.0, 4774.0, 4776.0, 4772.0, 4800.0, 4774.0, 4776.0, 4796.0, 4770.0, 4774.0, 4798.0, 4776.0, 4802.0, 4778.0, 4774.0, 4780.0, 4800.0, 4774.0, 4772.0, 4772.0, 4774.0, 4776.0, 4778.0, 4798.0, 4798.0, 4800.0, 4778.0, 4800.0, 4796.0, 4778.0, 4772.0, 4776.0, 4772.0, 4776.0, 4772.0, 4776.0, 4776.0, 4800.0, 4774.0, 4776.0, 4774.0, 4806.0, 4810.0, 4802.0, 4768.0, 4764.0, 4764.0, 4768.0, 4796.0, 4774.0, 4806.0, 4804.0, 4804.0, 4800.0, 4798.0, 4774.0, 4768.0, 4770.0, 4764.0, 4770.0, 4774.0, 4774.0, 4780.0, 4802.0, 4802.0, 4802.0, 4800.0, 4774.0, 4770.0, 4774.0, 4774.0, 4772.0, 4770.0, 4776.0, 4774.0, 4776.0, 4778.0, 4774.0, 4778.0, 4776.0, 4798.0, 4776.0, 4776.0, 4772.0, 4778.0, 4776.0, 4774.0, 4776.0, 4772.0, 4772.0, 4798.0, 4772.0, 4778.0, 4774.0, 4778.0, 4770.0, 4776.0, 4776.0, 4770.0, 4776.0, 4800.0, 4772.0, 4774.0, 4776.0, 4770.0, 4774.0, 4770.0, 4776.0, 4772.0, 4800.0, 4780.0, 4800.0, 4776.0, 4776.0, 4776.0, 4802.0, 4800.0, 4770.0, 4778.0, 4770.0, 4772.0, 4776.0, 4778.0, 4804.0, 4802.0, 4802.0, 4778.0, 4798.0, 4776.0, 4800.0, 4798.0, 4770.0, 4778.0, 4774.0, 4802.0, 4778.0, 4800.0, 4804.0, 4774.0, 4776.0, 4798.0],
      "WindowWidth": [18512.0, 18522.0, 18512.0, 18514.0, 18508.0, 18516.0, 18508.0, 18518.0, 18516.0, 18512.0, 18524.0, 18516.0, 18516.0, 18512.0, 18520.0, 18512.0, 18512.0, 18508.0, 18512.0, 18510.0, 18516.0, 18544.0, 18516.0, 18520.0, 18514.0, 18520.0, 18516.0, 18512.0, 18516.0, 18508.0, 18510.0, 18508.0, 18510.0, 18510.0, 18516.0, 18514.0, 18514.0, 18518.0, 18518.0, 18514.0, 18512.0, 18510.0, 18512.0, 18518.0, 18516.0, 18518.0, 18514.0, 18508.0, 18516.0, 18508.0, 18510.0, 18532.0, 18514.0, 18516.0, 18520.0, 18516.0, 18516.0, 18520.0, 18512.0, 18534.0, 18512.0, 18538.0, 18518.0, 18510.0, 18514.0, 18542.0, 18514.0, 18510.0, 18550.0, 18510.0, 18520.0, 18540.0, 18508.0, 18546.0, 18512.0, 18512.0, 18502.0, 18538.0, 18514.0, 18520.0, 18516.0, 18524.0, 18514.0, 18512.0, 18540.0, 18544.0, 18540.0, 18510.0, 18542.0, 18546.0, 18510.0, 18514.0, 18508.0, 18514.0, 18512.0, 18522.0, 18508.0, 18516.0, 18542.0, 18512.0, 18516.0, 18514.0, 18522.0, 18534.0, 18546.0, 18524.0, 18528.0, 18518.0, 18526.0, 18558.0, 18514.0, 18532.0, 18534.0, 18530.0, 18534.0, 18544.0, 18506.0, 18520.0, 18520.0, 18518.0, 18520.0, 18524.0, 18510.0, 18506.0, 18538.0, 18534.0, 18540.0, 18536.0, 18512.0, 18520.0, 18514.0, 18524.0, 18514.0, 18520.0, 18518.0, 18516.0, 18518.0, 18508.0, 18516.0, 18510.0, 18510.0, 18540.0, 18514.0, 18510.0, 18516.0, 18512.0, 18516.0, 18518.0, 18516.0, 18514.0, 18514.0, 18540.0, 18512.0, 18516.0, 18516.0, 18516.0, 18514.0, 18518.0, 18516.0, 18510.0, 18504.0, 18540.0, 18512.0, 18518.0, 18516.0, 18516.0, 18518.0, 18518.0, 18510.0, 18514.0, 18540.0, 18506.0, 18544.0, 18510.0, 18506.0, 18514.0, 18532.0, 18540.0, 18522.0, 18520.0, 18518.0, 18516.0, 18516.0, 18518.0, 18540.0, 18542.0, 18542.0, 18514.0, 18544.0, 18514.0, 18546.0, 18546.0, 18512.0, 18512.0, 18516.0, 18542.0, 18510.0, 18540.0, 18542.0, 18518.0, 18512.0, 18546.0]
    },
    "slices": {}
  }
}