{
  "AcquisitionMatrixPE": 104,
  "AcquisitionNumber": 1,
  "AcquisitionTime": "19:25:56.857500",
  "BandwidthPerPixelPhaseEncode": 17.17,
  "BaseResolution": 104,
  "BodyPartExamined": "BRAIN",
  "CoilCombinationMethod": "Sum of Squares",
  "ConsistencyInfo": "N4_VE11C_LATEST_20160120",
  "ConversionSoftware": "dcm2niix",
  "ConversionSoftwareVersion": "v1.0.20230411",
  "DerivedVendorReportedEchoSpacing": 0.000560011,
  "DeviceSerialNumber": "167006",
  "DwellTime": 2.1e-06,
  "EchoTime": 0.037,
  "EchoTime1": 0.037,
  "EchoTime2": 0.001,
  "EchoTrainLength": 104,
  "EffectiveEchoSpacing": 0.000560011,
  "FlipAngle": 52,
  "HeudiconvVersion": "0.5.3.post861+ge7d3c7f",
  "ImageComments": "Unaliased MB4/PE3/LB",
  "ImageOrientationPatientDICOM": [0.999484, -0.0243732, 0.0209017, 0.0305371, 0.92272, -0.384259],
  "ImageOrientationText": "Tra>Cor(-22.6)>Sag(0.6)",
  "ImageType": [
    "ORIGINAL",
    "PRIMARY",
    "P",
    "MB",
    "ND",
    "MOSAIC",
    "PHASE"
],
  "ImagingFrequency": 123.249689,
  "InPlanePhaseEncodingDirectionDICOM": "COL",
  "InstitutionAddress": "Chemin Queen-Mary 4565,Montreal,District,CA,H3W 1W5",
  "InstitutionName": "IUGM",
  "InstitutionalDepartmentName": "Department",
  "MRAcquisitionType": "2D",
  "MagneticFieldStrength": 3,
  "Manufacturer": "Siemens",
  "ManufacturersModelName": "Prisma_fit",
  "MatrixCoilMode": "SENSE",
  "Modality": "MR",
  "MultibandAccelerationFactor": 4,
  "NonlinearGradientCorrection": false,
  "PartialFourier": 1,
  "PatientPosition": "HFS",
  "PercentPhaseFOV": 100,
  "PercentSampling": 100,
  "PhaseEncodingDirection": "j",
  "PhaseEncodingSteps": 104,
  "PhaseResolution": 1,
  "PixelBandwidth": 2290,
  "ProcedureStepDescription": "localizers^retinotopy",
  "ProtocolName": "func_task-rings",
  "PulseSequenceDetails": "%CustomerSeq%\\cmrr_mbep2d_bold",
  "ReceiveCoilActiveElements": "HC1-7;NC1,2",
  "ReceiveCoilName": "HeadNeck_64",
  "ReconMatrixPE": 104,
  "RepetitionTime": 1.49,
  "SAR": 0.0930623,
  "ScanOptions": "FS",
  "ScanningSequence": "EP",
  "SequenceName": "epfid2d1_104",
  "SequenceVariant": "SK\\SS",
  "SeriesDescription": "func_task-rings",
  "SeriesNumber": 17,
  "ShimSetting": [591, -7284, -8807, 395, 5, -356, -43, 104],
  "SliceThickness": 2,
  "SliceTiming": [0, 0.7825, 0.0975, 0.88, 0.195, 0.98, 0.2925, 1.0775, 0.39, 1.175, 0.49, 1.2725, 0.5875, 1.37, 0.685, 0, 0.7825, 0.0975, 0.88, 0.195, 0.98, 0.2925, 1.0775, 0.39, 1.175, 0.49, 1.2725, 0.5875, 1.37, 0.685, 0, 0.7825, 0.0975, 0.88, 0.195, 0.98, 0.2925, 1.0775, 0.39, 1.175, 0.49, 1.2725, 0.5875, 1.37, 0.685, 0, 0.7825, 0.0975, 0.88, 0.195, 0.98, 0.2925, 1.0775, 0.39, 1.175, 0.49, 1.2725, 0.5875, 1.37, 0.685],
  "SoftwareVersions": "syngo MR E11",
  "SpacingBetweenSlices": 2,
  "StationName": "MRC35049",
  "TaskName": "rings",
  "TotalReadoutTime": 0.0576811,
  "TxRefAmp": 326.603,
  "WipMemBlock": "8e46abca-1166-401e-9c89-931f9d1f68a8||Sequence: R017 ve11c/master r/75a17815+; Jun 28 2022 16:32:11 by eja",
  "dcmmeta_affine": [
    [-1.9989688396453857, 0.061074141412973404, 0.019841492176055908, 101.43678283691406],
    [0.04874645546078682, 1.8454400300979614, -0.7693990468978882, -69.25498962402344],
    [0.04180333390831947, 0.7685187458992004, 1.8459770679473877, -55.52455520629883],
    [0.0, 0.0, 0.0, 1.0]
],
  "dcmmeta_reorient_transform": [
    [0.0, -1.0, 0.0, 103.0],
    [1.0, 0.0, 0.0, 0.0],
    [0.0, 0.0, 1.0, 0.0],
    [0.0, 0.0, 0.0, 1.0]
],
  "dcmmeta_shape": [104, 104, 60, 202],
  "dcmmeta_slice_dim": 2,
  "dcmmeta_version": 0.6,
  "global": {
    "const": {
      "AcquisitionMatrix": [104, 0, 0, 104],
      "AngioFlag": "N",
      "BitsAllocated": 16,
      "BitsStored": 16,
      "BodyPartExamined": "BRAIN",
      "Columns": 832,
      "EchoNumbers": 1,
      "EchoTime": 37.0,
      "EchoTrainLength": 104,
      "FlipAngle": 52.0,
      "HighBit": 15,
      "ImageOrientationPatient": [0.99948440012994, -0.0243732271585, 0.02090166727277, 0.03053707088933, 0.92272001452569, -0.3842593682595],
      "ImagePositionPatient": [-857.58305219818, -774.82179729213, 288.15728283438],
      "ImageType": [
        "ORIGINAL",
        "PRIMARY",
        "P",
        "MB",
        "ND",
        "MOSAIC"
],
      "ImagedNucleus": "1H",
      "ImagingFrequency": 123.249689,
      "InPlanePhaseEncodingDirection": "COL",
      "LargestImagePixelValue": 4095,
      "MRAcquisitionType": "2D",
      "MagneticFieldStrength": 3.0,
      "Manufacturer": "SIEMENS",
      "ManufacturerModelName": "Prisma_fit",
      "Modality": "MR",
      "NumberOfAverages": 1.0,
      "NumberOfPhaseEncodingSteps": 104,
      "PercentPhaseFieldOfView": 100.0,
      "PercentSampling": 100.0,
      "PerformedProcedureStepStartTime": "191118.681000",
      "PhotometricInterpretation": "MONOCHROME2",
      "PixelBandwidth": 2290.0,
      "PixelRepresentation": 0,
      "PixelSpacing": [2.0, 2.0],
      "ProtocolName": "func_task-rings",
      "RepetitionTime": 1490.0,
      "RescaleIntercept": -4096.0,
      "RescaleSlope": 2.0,
      "RescaleType": "US",
      "Rows": 832,
      "SAR": 0.09306231224286,
      "SamplesPerPixel": 1,
      "ScanOptions": "FS",
      "ScanningSequence": "EP",
      "SequenceName": "epfid2d1_104",
      "SequenceVariant": [
        "SK",
        "SS"
],
      "SeriesDescription": "func_task-rings",
      "SeriesNumber": 17,
      "SeriesTime": "192723.219000",
      "SliceLocation": -23.599838052277,
      "SliceThickness": 2.0,
      "SmallestImagePixelValue": 0,
      "SoftwareVersions": "syngo MR E11",
      "SpacingBetweenSlices": 1.9999999927282,
      "SpecificCharacterSet": "ISO_IR 100",
      "StudyID": "1",
      "StudyTime": "191118.602000",
      "TransmitCoilName": "Body",
      "VariableFlipAngleFlag": "N",
      "WindowCenterWidthExplanation": "Algo1",
      "dBdt": 0.0},
    "slices": {}
  },
  "time": {
    "samples": {
      "AcquisitionNumber": [1, 2, 3, 4, 5, 6, 7, 8, 9, 10, 11, 12, 13, 14, 15, 16, 17, 18, 19, 20, 21, 22, 23, 24, 25, 26, 27, 28, 29, 30, 31, 32, 33, 34, 35, 36, 37, 38, 39, 40, 41, 42, 43, 44, 45, 46, 47, 48, 49, 50, 51, 52, 53, 54, 55, 56, 57, 58, 59, 60, 61, 62, 63, 64, 65, 66, 67, 68, 69, 70, 71, 72, 73, 74, 75, 76, 77, 78, 79, 80, 81, 82, 83, 84, 85, 86, 87, 88, 89, 90, 91, 92, 93, 94, 95, 96, 97, 98, 99, 100, 101, 102, 103, 104, 105, 106, 107, 108, 109, 110, 111, 112, 113, 114, 115, 116, 117, 118, 119, 120, 121, 122, 123, 124, 125, 126, 127, 128, 129, 130, 131, 132, 133, 134, 135, 136, 137, 138, 139, 140, 141, 142, 143, 144, 145, 146, 147, 148, 149, 150, 151, 152, 153, 154, 155, 156, 157, 158, 159, 160, 161, 162, 163, 164, 165, 166, 167, 168, 169, 170, 171, 172, 173, 174, 175, 176, 177, 178, 179, 180, 181, 182, 183, 184, 185, 186, 187, 188, 189, 190, 191, 192, 193, 194, 195, 196, 197, 198, 199, 200, 201, 202],
      "AcquisitionTime": ["192556.857500", "192558.347500", "192559.837500", "192601.327500", "192602.817500", "192604.307500", "192605.797500", "192607.287500", "192608.777500", "192610.267500", "192611.757500", "192613.247500", "192614.737500", "192616.227500", "192617.717500", "192619.207500", "192620.697500", "192622.187500", "192623.677500", "192625.167500", "192626.657500", "192628.147500", "192629.637500", "192631.127500", "192632.617500", "192634.107500", "192635.597500", "192637.087500", "192638.577500", "192640.067500", "192641.557500", "192643.047500", "192644.537500", "192646.027500", "192647.517500", "192649.007500", "192650.497500", "192651.987500", "192653.477500", "192654.967500", "192656.457500", "192657.947500", "192659.437500", "192700.927500", "192702.417500", "192703.907500", "192705.397500", "192706.887500", "192708.377500", "192709.867500", "192711.357500", "192712.847500", "192714.337500", "192715.827500", "192717.317500", "192718.807500", "192720.297500", "192721.787500", "192723.277500", "192724.767500", "192726.257500", "192727.747500", "192729.237500", "192730.727500", "192732.217500", "192733.707500", "192735.197500", "192736.687500", "192738.177500", "192739.667500", "192741.157500", "192742.647500", "192744.137500", "192745.627500", "192747.117500", "192748.607500", "192750.097500", "192751.587500", "192753.077500", "192754.567500", "192756.057500", "192757.547500", "192759.037500", "192800.527500", "192802.017500", "192803.507500", "192804.997500", "192806.487500", "192807.977500", "192809.467500", "192810.957500", "192812.447500", "192813.937500", "192815.427500", "192816.917500", "192818.407500", "192819.897500", "192821.387500", "192822.877500", "192824.367500", "192825.857500", "192827.347500", "192828.837500", "192830.327500", "192831.817500", "192833.307500", "192834.797500", "192836.287500", "192837.777500", "192839.267500", "192840.757500", "192842.247500", "192843.737500", "192845.227500", "192846.717500", "192848.207500", "192849.697500", "192851.187500", "192852.677500", "192854.167500", "192855.657500", "192857.147500", "192858.637500", "192900.127500", "192901.617500", "192903.107500", "192904.597500", "192906.087500", "192907.577500", "192909.067500", "192910.557500", "192912.047500", "192913.537500", "192915.027500", "192916.517500", "192918.007500", "192919.497500", "192920.987500", "192922.477500", "192923.967500", "192925.457500", "192926.947500", "192928.437500", "192929.927500", "192931.417500", "192932.907500", "192934.397500", "192935.887500", "192937.377500", "192938.867500", "192940.357500", "192941.847500", "192943.337500", "192944.827500", "192946.317500", "192947.807500", "192949.297500", "192950.787500", "192952.277500", "192953.767500", "192955.257500", "192956.747500", "192958.237500", "192959.727500", "193001.217500", "193002.707500", "193004.197500", "193005.687500", "193007.177500", "193008.667500", "193010.157500", "193011.647500", "193013.137500", "193014.627500", "193016.117500", "193017.607500", "193019.097500", "193020.587500", "193022.077500", "193023.567500", "193025.057500", "193026.547500", "193028.037500", "193029.527500", "193031.017500", "193032.507500", "193033.997500", "193035.487500", "193036.977500", "193038.467500", "193039.957500", "193041.447500", "193042.937500", "193044.427500", "193045.917500", "193047.407500", "193048.897500", "193050.387500", "193051.877500", "193053.367500", "193054.857500", "193056.347500"],
      "ContentTime": ["192723.221000", "192723.224000", "192723.226000", "192723.229000", "192723.231000", "192723.234000", "192723.236000", "192723.239000", "192723.241000", "192723.244000", "192723.247000", "192723.250000", "192723.252000", "192723.255000", "192723.257000", "192723.260000", "192723.263000", "192723.265000", "192723.268000", "192723.270000", "192723.273000", "192723.275000", "192723.288000", "192723.290000", "192723.293000", "192723.295000", "192723.298000", "192723.300000", "192723.303000", "192723.305000", "192723.308000", "192723.310000", "192723.312000", "192723.315000", "192723.317000", "192743.114000", "192743.116000", "192743.119000", "192743.121000", "192743.131000", "192743.133000", "192743.136000", "192743.139000", "192743.141000", "192743.144000", "192743.146000", "192743.149000", "192743.151000", "192743.154000", "192743.156000", "192743.159000", "192743.161000", "192743.164000", "192743.167000", "192743.170000", "192803.117000", "192803.120000", "192803.122000", "192803.125000", "192803.127000", "192803.130000", "192803.132000", "192803.135000", "192803.138000", "192803.140000", "192803.143000", "192803.145000", "192803.148000", "192803.150000", "192803.152000", "192803.155000", "192803.158000", "192803.160000", "192803.163000", "192803.165000", "192823.104000", "192823.106000", "192823.109000", "192823.111000", "192823.114000", "192823.116000", "192823.119000", "192823.121000", "192823.124000", "192823.126000", "192823.129000", "192823.131000", "192823.134000", "192823.137000", "192823.139000", "192823.142000", "192823.144000", "192823.147000", "192823.149000", "192823.152000", "192903.144000", "192903.146000", "192903.149000", "192903.152000", "192903.154000", "192903.157000", "192903.159000", "192903.162000", "192903.164000", "192903.167000", "192903.169000", "192903.172000", "192903.174000", "192903.177000", "192903.179000", "192903.182000", "192903.184000", "192903.187000", "192903.189000", "192903.192000", "192903.194000", "192903.197000", "192903.199000", "192903.202000", "192903.204000", "192903.207000", "192903.209000", "192943.148000", "192943.151000", "192943.153000", "192943.156000", "192943.158000", "192943.161000", "192943.163000", "192943.166000", "192943.168000", "192943.171000", "192943.173000", "192943.176000", "192943.178000", "192943.181000", "192943.183000", "192943.186000", "192943.188000", "192943.191000", "192943.193000", "192943.196000", "192943.198000", "192943.201000", "192943.203000", "192943.206000", "192943.208000", "192943.211000", "192943.213000", "193023.170000", "193023.173000", "193023.176000", "193023.178000", "193023.181000", "193023.183000", "193023.186000", "193023.188000", "193023.191000", "193023.193000", "193023.196000", "193023.198000", "193023.201000", "193023.203000", "193023.206000", "193023.208000", "193023.211000", "193023.213000", "193023.216000", "193023.218000", "193023.221000", "193023.223000", "193023.226000", "193023.228000", "193023.231000", "193023.233000", "193023.236000", "193101.471000", "193101.474000", "193101.476000", "193101.479000", "193101.482000", "193101.484000", "193101.487000", "193101.489000", "193101.492000", "193101.495000", "193101.498000", "193101.501000", "193101.504000", "193101.506000", "193101.509000", "193101.512000", "193101.515000", "193101.517000", "193101.520000", "193101.523000", "193101.525000", "193101.528000", "193101.531000", "193101.533000", "193101.536000", "193101.539000"],
      "InstanceCreationTime": ["192723.221000", "192723.224000", "192723.226000", "192723.229000", "192723.231000", "192723.234000", "192723.236000", "192723.239000", "192723.241000", "192723.244000", "192723.247000", "192723.250000", "192723.252000", "192723.255000", "192723.257000", "192723.260000", "192723.263000", "192723.265000", "192723.268000", "192723.270000", "192723.273000", "192723.275000", "192723.288000", "192723.290000", "192723.293000", "192723.295000", "192723.298000", "192723.300000", "192723.303000", "192723.305000", "192723.308000", "192723.310000", "192723.312000", "192723.315000", "192723.317000", "192743.114000", "192743.116000", "192743.119000", "192743.121000", "192743.131000", "192743.133000", "192743.136000", "192743.139000", "192743.141000", "192743.144000", "192743.146000", "192743.149000", "192743.151000", "192743.154000", "192743.156000", "192743.159000", "192743.161000", "192743.164000", "192743.167000", "192743.170000", "192803.117000", "192803.120000", "192803.122000", "192803.125000", "192803.127000", "192803.130000", "192803.132000", "192803.135000", "192803.138000", "192803.140000", "192803.143000", "192803.145000", "192803.148000", "192803.150000", "192803.152000", "192803.155000", "192803.158000", "192803.160000", "192803.163000", "192803.165000", "192823.104000", "192823.106000", "192823.109000", "192823.111000", "192823.114000", "192823.116000", "192823.119000", "192823.121000", "192823.124000", "192823.126000", "192823.129000", "192823.131000", "192823.134000", "192823.137000", "192823.139000", "192823.142000", "192823.144000", "192823.147000", "192823.149000", "192823.152000", "192903.144000", "192903.146000", "192903.149000", "192903.152000", "192903.154000", "192903.157000", "192903.159000", "192903.162000", "192903.164000", "192903.167000", "192903.169000", "192903.172000", "192903.174000", "192903.177000", "192903.179000", "192903.182000", "192903.184000", "192903.187000", "192903.189000", "192903.192000", "192903.194000", "192903.197000", "192903.199000", "192903.202000", "192903.204000", "192903.207000", "192903.209000", "192943.148000", "192943.151000", "192943.153000", "192943.156000", "192943.158000", "192943.161000", "192943.163000", "192943.166000", "192943.168000", "192943.171000", "192943.173000", "192943.176000", "192943.178000", "192943.181000", "192943.183000", "192943.186000", "192943.188000", "192943.191000", "192943.193000", "192943.196000", "192943.198000", "192943.201000", "192943.203000", "192943.206000", "192943.208000", "192943.211000", "192943.213000", "193023.170000", "193023.173000", "193023.176000", "193023.178000", "193023.181000", "193023.183000", "193023.186000", "193023.188000", "193023.191000", "193023.193000", "193023.196000", "193023.198000", "193023.201000", "193023.203000", "193023.206000", "193023.208000", "193023.211000", "193023.213000", "193023.216000", "193023.218000", "193023.221000", "193023.223000", "193023.226000", "193023.228000", "193023.231000", "193023.233000", "193023.236000", "193101.471000", "193101.474000", "193101.476000", "193101.479000", "193101.482000", "193101.484000", "193101.487000", "193101.489000", "193101.492000", "193101.495000", "193101.498000", "193101.501000", "193101.504000", "193101.506000", "193101.509000", "193101.512000", "193101.515000", "193101.517000", "193101.520000", "193101.523000", "193101.525000", "193101.528000", "193101.531000", "193101.533000", "193101.536000", "193101.539000"],
      "InstanceNumber": [1, 2, 3, 4, 5, 6, 7, 8, 9, 10, 11, 12, 13, 14, 15, 16, 17, 18, 19, 20, 21, 22, 23, 24, 25, 26, 27, 28, 29, 30, 31, 32, 33, 34, 35, 36, 37, 38, 39, 40, 41, 42, 43, 44, 45, 46, 47, 48, 49, 50, 51, 52, 53, 54, 55, 56, 57, 58, 59, 60, 61, 62, 63, 64, 65, 66, 67, 68, 69, 70, 71, 72, 73, 74, 75, 76, 77, 78, 79, 80, 81, 82, 83, 84, 85, 86, 87, 88, 89, 90, 91, 92, 93, 94, 95, 96, 97, 98, 99, 100, 101, 102, 103, 104, 105, 106, 107, 108, 109, 110, 111, 112, 113, 114, 115, 116, 117, 118, 119, 120, 121, 122, 123, 124, 125, 126, 127, 128, 129, 130, 131, 132, 133, 134, 135, 136, 137, 138, 139, 140, 141, 142, 143, 144, 145, 146, 147, 148, 149, 150, 151, 152, 153, 154, 155, 156, 157, 158, 159, 160, 161, 162, 163, 164, 165, 166, 167, 168, 169, 170, 171, 172, 173, 174, 175, 176, 177, 178, 179, 180, 181, 182, 183, 184, 185, 186, 187, 188, 189, 190, 191, 192, 193, 194, 195, 196, 197, 198, 199, 200, 201, 202],
      "WindowCenter": [4778.0, 4778.0, 4780.0, 4778.0, 4804.0, 4804.0, 4804.0, 4802.0, 4774.0, 4776.0, 4770.0, 4772.0, 4778.0, 4780.0, 4780.0, 4804.0, 4802.0, 4804.0, 4806.0, 4800.0, 4804.0, 4778.0, 4806.0, 4778.0, 4804.0, 4800.0, 4800.0, 4772.0, 4778.0, 4782.0, 4816.0, 4838.0, 4812.0, 4800.0, 4796.0, 4794.0, 4770.0, 4772.0, 4802.0, 4814.0, 4836.0, 4812.0, 4834.0, 4806.0, 4800.0, 4776.0, 4774.0, 4774.0, 4774.0, 4798.0, 4808.0, 4810.0, 4836.0, 4808.0, 4810.0, 4802.0, 4804.0, 4778.0, 4802.0, 4774.0, 4776.0, 4778.0, 4802.0, 4808.0, 4804.0, 4808.0, 4806.0, 4808.0, 4778.0, 4780.0, 4776.0, 4802.0, 4778.0, 4802.0, 4804.0, 4778.0, 4806.0, 4782.0, 4778.0, 4802.0, 4778.0, 4800.0, 4778.0, 4804.0, 4806.0, 4804.0, 4778.0, 4780.0, 4802.0, 4780.0, 4804.0, 4802.0, 4804.0, 4778.0, 4808.0, 4780.0, 4810.0, 4778.0, 4778.0, 4778.0, 4780.0, 4800.0, 4778.0, 4806.0, 4804.0, 4806.0, 4806.0, 4808.0, 4804.0, 4804.0, 4804.0, 4804.0, 4802.0, 4804.0, 4780.0, 4806.0, 4804.0, 4806.0, 4802.0, 4802.0, 4806.0, 4800.0, 4804.0, 4804.0, 4802.0, 4804.0, 4804.0, 4804.0, 4780.0, 4802.0, 4806.0, 4802.0, 4804.0, 4804.0, 4806.0, 4804.0, 4804.0, 4808.0, 4802.0, 4806.0, 4804.0, 4778.0, 4810.0, 4864.0, 4832.0, 4800.0, 4774.0, 4772.0, 4770.0, 4774.0, 4800.0, 4808.0, 4836.0, 4834.0, 4836.0, 4810.0, 4808.0, 4806.0, 4776.0, 4776.0, 4774.0, 4778.0, 4800.0, 4804.0, 4808.0, 4812.0, 4814.0, 4834.0, 4804.0, 4806.0, 4780.0, 4780.0, 4778.0, 4800.0, 4800.0, 4802.0, 4810.0, 4806.0, 4808.0, 4808.0, 4804.0, 4806.0, 4778.0, 4802.0, 4798.0, 4806.0, 4806.0, 4804.0, 4806.0, 4806.0, 4812.0, 4808.0, 4808.0, 4802.0, 4800.0, 4806.0, 4778.0, 4806.0, 4804.0, 4808.0, 4812.0, 4804.0],
      "WindowWidth": [18508.0, 18508.0, 18510.0, 18502.0, 18530.0, 18528.0, 18532.0, 18532.0, 18512.0, 18510.0, 18506.0, 18508.0, 18502.0, 18504.0, 18506.0, 18532.0, 18530.0, 18540.0, 18530.0, 18536.0, 18530.0, 18508.0, 18526.0, 18504.0, 18530.0, 18544.0, 18534.0, 18516.0, 18506.0, 18498.0, 18522.0, 18548.0, 18520.0, 18540.0, 18552.0, 18558.0, 18526.0, 18524.0, 18538.0, 18522.0, 18556.0, 18530.0, 18554.0, 18528.0, 18532.0, 18514.0, 18514.0, 18522.0, 18510.0, 18536.0, 18532.0, 18530.0, 18554.0, 18528.0, 18520.0, 18526.0, 18530.0, 18508.0, 18536.0, 18512.0, 18508.0, 18506.0, 18536.0, 18530.0, 18528.0, 18524.0, 18530.0, 18530.0, 18502.0, 18504.0, 18502.0, 18536.0, 18500.0, 18534.0, 18530.0, 18504.0, 18536.0, 18500.0, 18504.0, 18528.0, 18500.0, 18532.0, 18502.0, 18540.0, 18532.0, 18530.0, 18502.0, 18508.0, 18526.0, 18512.0, 18524.0, 18538.0, 18530.0, 18510.0, 18522.0, 18500.0, 18538.0, 18504.0, 18504.0, 18508.0, 18506.0, 18532.0, 18504.0, 18526.0, 18534.0, 18534.0, 18534.0, 18532.0, 18532.0, 18542.0, 18528.0, 18540.0, 18528.0, 18538.0, 18502.0, 18532.0, 18538.0, 18528.0, 18534.0, 18534.0, 18534.0, 18534.0, 18540.0, 18524.0, 18532.0, 18524.0, 18536.0, 18530.0, 18500.0, 18534.0, 18532.0, 18534.0, 18524.0, 18534.0, 18534.0, 18524.0, 18534.0, 18532.0, 18532.0, 18534.0, 18528.0, 18502.0, 18528.0, 18584.0, 18550.0, 18530.0, 18522.0, 18520.0, 18520.0, 18514.0, 18540.0, 18530.0, 18558.0, 18556.0, 18556.0, 18526.0, 18528.0, 18536.0, 18502.0, 18514.0, 18516.0, 18516.0, 18532.0, 18528.0, 18524.0, 18528.0, 18530.0, 18560.0, 18532.0, 18524.0, 18502.0, 18500.0, 18510.0, 18538.0, 18528.0, 18530.0, 18528.0, 18528.0, 18528.0, 18520.0, 18522.0, 18534.0, 18498.0, 18532.0, 18534.0, 18530.0, 18532.0, 18528.0, 18524.0, 18532.0, 18526.0, 18536.0, 18528.0, 18528.0, 18534.0, 18538.0, 18510.0, 18534.0, 18532.0, 18532.0, 18532.0, 18526.0]
    },
    "slices": {}
  }
}