{
  "AcquisitionMatrixPE": 104,
  "AcquisitionNumber": 1,
  "AcquisitionTime": "19:35:3.095000",
  "BandwidthPerPixelPhaseEncode": 17.17,
  "BaseResolution": 104,
  "BodyPartExamined": "BRAIN",
  "CoilCombinationMethod": "Sum of Squares",
  "ConsistencyInfo": "N4_VE11C_LATEST_20160120",
  "ConversionSoftware": "dcm2niix",
  "ConversionSoftwareVersion": "v1.0.20230411",
  "DerivedVendorReportedEchoSpacing": 0.000560011,
  "DeviceSerialNumber": "167006",
  "DwellTime": 2.1e-06,
  "EchoTime": 0.037,
  "EchoTime1": 0.037,
  "EchoTime2": 0.001,
  "EchoTrainLength": 104,
  "EffectiveEchoSpacing": 0.000560011,
  "FlipAngle": 52,
  "HeudiconvVersion": "0.5.3.post861+ge7d3c7f",
  "ImageComments": "Unaliased MB4/PE3/LB",
  "ImageOrientationPatientDICOM": [0.999844, -0.0157676, 0.00795635, 0.0176269, 0.918964, -0.393947],
  "ImageOrientationText": "Tra>Cor(-23.2)>Sag(0.1)",
  "ImageType": [
    "ORIGINAL",
    "PRIMARY",
    "P",
    "MB",
    "ND",
    "MOSAIC",
    "PHASE"
],
  "ImagingFrequency": 123.249573,
  "InPlanePhaseEncodingDirectionDICOM": "COL",
  "InstitutionAddress": "Chemin Queen-Mary 4565,Montreal,District,CA,H3W 1W5",
  "InstitutionName": "IUGM",
  "InstitutionalDepartmentName": "Department",
  "MRAcquisitionType": "2D",
  "MagneticFieldStrength": 3,
  "Manufacturer": "Siemens",
  "ManufacturersModelName": "Prisma_fit",
  "MatrixCoilMode": "SENSE",
  "Modality": "MR",
  "MultibandAccelerationFactor": 4,
  "NonlinearGradientCorrection": false,
  "PartialFourier": 1,
  "PatientPosition": "HFS",
  "PercentPhaseFOV": 100,
  "PercentSampling": 100,
  "PhaseEncodingDirection": "j",
  "PhaseEncodingSteps": 104,
  "PhaseResolution": 1,
  "PixelBandwidth": 2290,
  "ProcedureStepDescription": "localizers^retinotopy",
  "ProtocolName": "func_task-wedges",
  "PulseSequenceDetails": "%CustomerSeq%\\cmrr_mbep2d_bold",
  "ReceiveCoilActiveElements": "HC1-7;NC1,2",
  "ReceiveCoilName": "HeadNeck_64",
  "ReconMatrixPE": 104,
  "RepetitionTime": 1.49,
  "SAR": 0.0690401,
  "ScanOptions": "FS",
  "ScanningSequence": "EP",
  "SequenceName": "epfid2d1_104",
  "SequenceVariant": "SK\\SS",
  "SeriesDescription": "func_task-wedges",
  "SeriesNumber": 11,
  "ShimSetting": [585, -7279, -8834, 323, 28, -402, -32, 115],
  "SliceThickness": 2,
  "SliceTiming": [0, 0.785, 0.1, 0.8825, 0.1975, 0.98, 0.295, 1.0775, 0.3925, 1.1775, 0.49, 1.275, 0.5875, 1.3725, 0.6875, 0, 0.785, 0.1, 0.8825, 0.1975, 0.98, 0.295, 1.0775, 0.3925, 1.1775, 0.49, 1.275, 0.5875, 1.3725, 0.6875, 0, 0.785, 0.1, 0.8825, 0.1975, 0.98, 0.295, 1.0775, 0.3925, 1.1775, 0.49, 1.275, 0.5875, 1.3725, 0.6875, 0, 0.785, 0.1, 0.8825, 0.1975, 0.98, 0.295, 1.0775, 0.3925, 1.1775, 0.49, 1.275, 0.5875, 1.3725, 0.6875],
  "SoftwareVersions": "syngo MR E11",
  "SpacingBetweenSlices": 2,
  "StationName": "MRC35049",
  "TaskName": "wedges",
  "TotalReadoutTime": 0.0576811,
  "TxRefAmp": 289.242,
  "WipMemBlock": "949795e6-9bca-4e78-972a-88d4f38c396b||Sequence: R017 ve11c/master r/75a17815+; Jun 28 2022 16:32:11 by eja",
  "dcmmeta_affine": [
    [-1.9996880292892456, 0.035253897309303284, 0.0022000179160386324, 103.10713958740234],
    [0.031535111367702484, 1.8379278182983398, -0.7880525588989258, -60.75958251953125],
    [0.015912698581814766, 0.7878949642181396, 1.8381969928741455, -64.35636901855469],
    [0.0, 0.0, 0.0, 1.0]
],
  "dcmmeta_reorient_transform": [
    [0.0, -1.0, 0.0, 103.0],
    [1.0, 0.0, 0.0, 0.0],
    [0.0, 0.0, 1.0, 0.0],
    [0.0, 0.0, 0.0, 1.0]
],
  "dcmmeta_shape": [104, 104, 60, 202],
  "dcmmeta_slice_dim": 2,
  "dcmmeta_version": 0.6,
  "global": {
    "const": {
      "AcquisitionMatrix": [104, 0, 0, 104],
      "AngioFlag": "N",
      "BitsAllocated": 16,
      "BitsStored": 16,
      "BodyPartExamined": "BRAIN",
      "Columns": 832,
      "EchoNumbers": 1,
      "EchoTime": 37.0,
      "EchoTrainLength": 104,
      "FlipAngle": 52.0,
      "HighBit": 15,
      "ImageOrientationPatient": [0.99984402817693, -0.0157675559528, 0.00795634955274, 0.01762694809755, 0.91896390795971, -0.3939474921461],
      "ImagePositionPatient": [-847.45716399647, -786.07392785801, 297.79836865951],
      "ImageType": [
        "ORIGINAL",
        "PRIMARY",
        "P",
        "MB",
        "ND",
        "MOSAIC"
],
      "ImagedNucleus": "1H",
      "ImagingFrequency": 123.249573,
      "InPlanePhaseEncodingDirection": "COL",
      "LargestImagePixelValue": 4095,
      "MRAcquisitionType": "2D",
      "MagneticFieldStrength": 3.0,
      "Manufacturer": "SIEMENS",
      "ManufacturerModelName": "Prisma_fit",
      "Modality": "MR",
      "NumberOfAverages": 1.0,
      "NumberOfPhaseEncodingSteps": 104,
      "PercentPhaseFieldOfView": 100.0,
      "PercentSampling": 100.0,
      "PerformedProcedureStepStartTime": "193135.840000",
      "PhotometricInterpretation": "MONOCHROME2",
      "PixelBandwidth": 2290.0,
      "PixelRepresentation": 0,
      "PixelSpacing": [2.0, 2.0],
      "ProtocolName": "func_task-wedges",
      "RepetitionTime": 1490.0,
      "RescaleIntercept": -4096.0,
      "RescaleSlope": 2.0,
      "RescaleType": "US",
      "Rows": 832,
      "SAR": 0.06904010457967,
      "SamplesPerPixel": 1,
      "ScanOptions": "FS",
      "ScanningSequence": "EP",
      "SequenceName": "epfid2d1_104",
      "SequenceVariant": [
        "SK",
        "SS"
],
      "SeriesDescription": "func_task-wedges",
      "SeriesNumber": 11,
      "SeriesTime": "193638.872000",
      "SliceLocation": -35.095549091207,
      "SliceThickness": 2.0,
      "SmallestImagePixelValue": 0,
      "SoftwareVersions": "syngo MR E11",
      "SpacingBetweenSlices": 1.9999999624185,
      "SpecificCharacterSet": "ISO_IR 100",
      "StudyID": "1",
      "StudyTime": "193135.760000",
      "TransmitCoilName": "Body",
      "VariableFlipAngleFlag": "N",
      "WindowCenterWidthExplanation": "Algo1",
      "dBdt": 0.0},
    "slices": {}
  },
  "time": {
    "samples": {
      "AcquisitionNumber": [1, 2, 3, 4, 5, 6, 7, 8, 9, 10, 11, 12, 13, 14, 15, 16, 17, 18, 19, 20, 21, 22, 23, 24, 25, 26, 27, 28, 29, 30, 31, 32, 33, 34, 35, 36, 37, 38, 39, 40, 41, 42, 43, 44, 45, 46, 47, 48, 49, 50, 51, 52, 53, 54, 55, 56, 57, 58, 59, 60, 61, 62, 63, 64, 65, 66, 67, 68, 69, 70, 71, 72, 73, 74, 75, 76, 77, 78, 79, 80, 81, 82, 83, 84, 85, 86, 87, 88, 89, 90, 91, 92, 93, 94, 95, 96, 97, 98, 99, 100, 101, 102, 103, 104, 105, 106, 107, 108, 109, 110, 111, 112, 113, 114, 115, 116, 117, 118, 119, 120, 121, 122, 123, 124, 125, 126, 127, 128, 129, 130, 131, 132, 133, 134, 135, 136, 137, 138, 139, 140, 141, 142, 143, 144, 145, 146, 147, 148, 149, 150, 151, 152, 153, 154, 155, 156, 157, 158, 159, 160, 161, 162, 163, 164, 165, 166, 167, 168, 169, 170, 171, 172, 173, 174, 175, 176, 177, 178, 179, 180, 181, 182, 183, 184, 185, 186, 187, 188, 189, 190, 191, 192, 193, 194, 195, 196, 197, 198, 199, 200, 201, 202],
      "AcquisitionTime": ["193503.095000", "193504.585000", "193506.075000", "193507.565000", "193509.055000", "193510.545000", "193512.035000", "193513.525000", "193515.015000", "193516.505000", "193517.995000", "193519.485000", "193520.975000", "193522.465000", "193523.955000", "193525.445000", "193526.935000", "193528.425000", "193529.915000", "193531.405000", "193532.895000", "193534.385000", "193535.875000", "193537.365000", "193538.855000", "193540.345000", "193541.835000", "193543.325000", "193544.815000", "193546.305000", "193547.795000", "193549.285000", "193550.775000", "193552.265000", "193553.755000", "193555.245000", "193556.735000", "193558.225000", "193559.715000", "193601.205000", "193602.695000", "193604.185000", "193605.675000", "193607.165000", "193608.655000", "193610.145000", "193611.635000", "193613.125000", "193614.615000", "193616.105000", "193617.595000", "193619.085000", "193620.575000", "193622.065000", "193623.555000", "193625.045000", "193626.535000", "193628.025000", "193629.515000", "193631.005000", "193632.495000", "193633.985000", "193635.475000", "193636.965000", "193638.455000", "193639.945000", "193641.435000", "193642.925000", "193644.415000", "193645.905000", "193647.395000", "193648.885000", "193650.375000", "193651.865000", "193653.355000", "193654.845000", "193656.335000", "193657.825000", "193659.315000", "193700.805000", "193702.295000", "193703.785000", "193705.275000", "193706.765000", "193708.255000", "193709.745000", "193711.235000", "193712.725000", "193714.215000", "193715.705000", "193717.195000", "193718.685000", "193720.175000", "193721.665000", "193723.155000", "193724.645000", "193726.135000", "193727.625000", "193729.115000", "193730.605000", "193732.095000", "193733.585000", "193735.075000", "193736.565000", "193738.055000", "193739.545000", "193741.035000", "193742.525000", "193744.015000", "193745.505000", "193746.995000", "193748.485000", "193749.975000", "193751.465000", "193752.955000", "193754.445000", "193755.935000", "193757.425000", "193758.915000", "193800.405000", "193801.895000", "193803.385000", "193804.875000", "193806.365000", "193807.855000", "193809.345000", "193810.835000", "193812.325000", "193813.815000", "193815.305000", "193816.795000", "193818.285000", "193819.775000", "193821.265000", "193822.755000", "193824.245000", "193825.735000", "193827.225000", "193828.715000", "193830.205000", "193831.695000", "193833.185000", "193834.675000", "193836.165000", "193837.655000", "193839.145000", "193840.635000", "193842.125000", "193843.615000", "193845.105000", "193846.595000", "193848.085000", "193849.575000", "193851.065000", "193852.555000", "193854.045000", "193855.535000", "193857.025000", "193858.515000", "193900.005000", "193901.495000", "193902.985000", "193904.475000", "193905.965000", "193907.455000", "193908.945000", "193910.435000", "193911.925000", "193913.415000", "193914.905000", "193916.395000", "193917.885000", "193919.375000", "193920.865000", "193922.355000", "193923.845000", "193925.335000", "193926.825000", "193928.315000", "193929.805000", "193931.295000", "193932.785000", "193934.275000", "193935.765000", "193937.255000", "193938.745000", "193940.235000", "193941.725000", "193943.215000", "193944.705000", "193946.195000", "193947.685000", "193949.175000", "193950.665000", "193952.155000", "193953.645000", "193955.135000", "193956.625000", "193958.115000", "193959.605000", "194001.095000", "194002.585000"],
      "ContentTime": ["193638.874000", "193638.877000", "193638.880000", "193638.882000", "193638.885000", "193638.888000", "193638.890000", "193638.893000", "193638.895000", "193638.898000", "193638.900000", "193638.903000", "193638.905000", "193638.908000", "193638.910000", "193638.913000", "193638.916000", "193638.918000", "193638.921000", "193638.924000", "193638.926000", "193638.929000", "193638.954000", "193638.956000", "193638.959000", "193638.962000", "193638.964000", "193638.967000", "193638.969000", "193638.972000", "193638.974000", "193638.977000", "193638.979000", "193638.982000", "193658.801000", "193658.804000", "193658.807000", "193658.809000", "193658.812000", "193658.821000", "193658.832000", "193658.834000", "193658.837000", "193658.839000", "193658.842000", "193658.844000", "193658.847000", "193658.850000", "193658.852000", "193658.855000", "193658.857000", "193658.860000", "193658.862000", "193658.865000", "193718.788000", "193718.791000", "193718.794000", "193718.796000", "193718.799000", "193718.801000", "193718.804000", "193718.806000", "193718.809000", "193718.812000", "193718.814000", "193718.817000", "193718.819000", "193718.822000", "193718.824000", "193718.827000", "193718.829000", "193718.832000", "193718.834000", "193718.837000", "193718.839000", "193738.786000", "193738.789000", "193738.791000", "193738.794000", "193738.797000", "193738.799000", "193738.802000", "193738.804000", "193738.807000", "193738.809000", "193738.812000", "193738.815000", "193738.817000", "193738.820000", "193738.822000", "193738.825000", "193738.827000", "193738.830000", "193738.832000", "193738.835000", "193818.815000", "193818.818000", "193818.821000", "193818.823000", "193818.826000", "193818.828000", "193818.831000", "193818.833000", "193818.836000", "193818.838000", "193818.841000", "193818.843000", "193818.846000", "193818.848000", "193818.851000", "193818.854000", "193818.857000", "193818.859000", "193818.862000", "193818.864000", "193818.867000", "193818.870000", "193818.872000", "193818.875000", "193818.877000", "193818.880000", "193818.882000", "193858.810000", "193858.812000", "193858.815000", "193858.818000", "193858.820000", "193858.823000", "193858.825000", "193858.828000", "193858.830000", "193858.833000", "193858.835000", "193858.838000", "193858.840000", "193858.843000", "193858.845000", "193858.848000", "193858.850000", "193858.853000", "193858.855000", "193858.858000", "193858.860000", "193858.863000", "193858.866000", "193858.868000", "193858.871000", "193858.873000", "193858.876000", "193938.814000", "193938.816000", "193938.819000", "193938.821000", "193938.824000", "193938.827000", "193938.829000", "193938.832000", "193938.834000", "193938.837000", "193938.839000", "193938.842000", "193938.844000", "193938.847000", "193938.849000", "193938.852000", "193938.854000", "193938.857000", "193938.859000", "193938.862000", "193938.864000", "193938.867000", "193938.869000", "193938.872000", "193938.874000", "193938.877000", "194017.649000", "194017.651000", "194017.654000", "194017.656000", "194017.659000", "194017.661000", "194017.664000", "194017.667000", "194017.669000", "194017.672000", "194017.674000", "194017.677000", "194017.679000", "194017.682000", "194017.684000", "194017.687000", "194017.689000", "194017.692000", "194017.694000", "194017.697000", "194017.699000", "194017.702000", "194017.704000", "194017.707000", "194017.709000", "194017.712000", "194017.714000"],
      "InstanceCreationTime": ["193638.874000", "193638.877000", "193638.880000", "193638.882000", "193638.885000", "193638.888000", "193638.890000", "193638.893000", "193638.895000", "193638.898000", "193638.900000", "193638.903000", "193638.905000", "193638.908000", "193638.910000", "193638.913000", "193638.916000", "193638.918000", "193638.921000", "193638.924000", "193638.926000", "193638.929000", "193638.954000", "193638.956000", "193638.959000", "193638.962000", "193638.964000", "193638.967000", "193638.969000", "193638.972000", "193638.974000", "193638.977000", "193638.979000", "193638.982000", "193658.801000", "193658.804000", "193658.807000", "193658.809000", "193658.812000", "193658.821000", "193658.832000", "193658.834000", "193658.837000", "193658.839000", "193658.842000", "193658.844000", "193658.847000", "193658.850000", "193658.852000", "193658.855000", "193658.857000", "193658.860000", "193658.862000", "193658.865000", "193718.788000", "193718.791000", "193718.794000", "193718.796000", "193718.799000", "193718.801000", "193718.804000", "193718.806000", "193718.809000", "193718.812000", "193718.814000", "193718.817000", "193718.819000", "193718.822000", "193718.824000", "193718.827000", "193718.829000", "193718.832000", "193718.834000", "193718.837000", "193718.839000", "193738.786000", "193738.789000", "193738.791000", "193738.794000", "193738.797000", "193738.799000", "193738.802000", "193738.804000", "193738.807000", "193738.809000", "193738.812000", "193738.815000", "193738.817000", "193738.820000", "193738.822000", "193738.825000", "193738.827000", "193738.830000", "193738.832000", "193738.835000", "193818.815000", "193818.818000", "193818.821000", "193818.823000", "193818.826000", "193818.828000", "193818.831000", "193818.833000", "193818.836000", "193818.838000", "193818.841000", "193818.843000", "193818.846000", "193818.848000", "193818.851000", "193818.854000", "193818.857000", "193818.859000", "193818.862000", "193818.864000", "193818.867000", "193818.870000", "193818.872000", "193818.875000", "193818.877000", "193818.880000", "193818.882000", "193858.810000", "193858.812000", "193858.815000", "193858.818000", "193858.820000", "193858.823000", "193858.825000", "193858.828000", "193858.830000", "193858.833000", "193858.835000", "193858.838000", "193858.840000", "193858.843000", "193858.845000", "193858.848000", "193858.850000", "193858.853000", "193858.855000", "193858.858000", "193858.860000", "193858.863000", "193858.866000", "193858.868000", "193858.871000", "193858.873000", "193858.876000", "193938.814000", "193938.816000", "193938.819000", "193938.821000", "193938.824000", "193938.827000", "193938.829000", "193938.832000", "193938.834000", "193938.837000", "193938.839000", "193938.842000", "193938.844000", "193938.847000", "193938.849000", "193938.852000", "193938.854000", "193938.857000", "193938.859000", "193938.862000", "193938.864000", "193938.867000", "193938.869000", "193938.872000", "193938.874000", "193938.877000", "194017.649000", "194017.651000", "194017.654000", "194017.656000", "194017.659000", "194017.661000", "194017.664000", "194017.667000", "194017.669000", "194017.672000", "194017.674000", "194017.677000", "194017.679000", "194017.682000", "194017.684000", "194017.687000", "194017.689000", "194017.692000", "194017.694000", "194017.697000", "194017.699000", "194017.702000", "194017.704000", "194017.707000", "194017.709000", "194017.712000", "194017.714000"],
      "InstanceNumber": [1, 2, 3, 4, 5, 6, 7, 8, 9, 10, 11, 12, 13, 14, 15, 16, 17, 18, 19, 20, 21, 22, 23, 24, 25, 26, 27, 28, 29, 30, 31, 32, 33, 34, 35, 36, 37, 38, 39, 40, 41, 42, 43, 44, 45, 46, 47, 48, 49, 50, 51, 52, 53, 54, 55, 56, 57, 58, 59, 60, 61, 62, 63, 64, 65, 66, 67, 68, 69, 70, 71, 72, 73, 74, 75, 76, 77, 78, 79, 80, 81, 82, 83, 84, 85, 86, 87, 88, 89, 90, 91, 92, 93, 94, 95, 96, 97, 98, 99, 100, 101, 102, 103, 104, 105, 106, 107, 108, 109, 110, 111, 112, 113, 114, 115, 116, 117, 118, 119, 120, 121, 122, 123, 124, 125, 126, 127, 128, 129, 130, 131, 132, 133, 134, 135, 136, 137, 138, 139, 140, 141, 142, 143, 144, 145, 146, 147, 148, 149, 150, 151, 152, 153, 154, 155, 156, 157, 158, 159, 160, 161, 162, 163, 164, 165, 166, 167, 168, 169, 170, 171, 172, 173, 174, 175, 176, 177, 178, 179, 180, 181, 182, 183, 184, 185, 186, 187, 188, 189, 190, 191, 192, 193, 194, 195, 196, 197, 198, 199, 200, 201, 202],
      "WindowCenter": [4756.0, 4760.0, 4760.0, 4758.0, 4756.0, 4756.0, 4758.0, 4758.0, 4758.0, 4760.0, 4756.0, 4762.0, 4758.0, 4760.0, 4728.0, 4754.0, 4754.0, 4760.0, 4760.0, 4760.0, 4758.0, 4756.0, 4760.0, 4754.0, 4756.0, 4756.0, 4756.0, 4762.0, 4780.0, 4808.0, 4766.0, 4750.0, 4742.0, 4742.0, 4742.0, 4746.0, 4756.0, 4768.0, 4772.0, 4774.0, 4772.0, 4760.0, 4758.0, 4748.0, 4752.0, 4744.0, 4750.0, 4748.0, 4758.0, 4758.0, 4764.0, 4740.0, 4764.0, 4738.0, 4764.0, 4756.0, 4754.0, 4750.0, 4752.0, 4752.0, 4756.0, 4738.0, 4762.0, 4766.0, 4762.0, 4758.0, 4758.0, 4752.0, 4736.0, 4754.0, 4764.0, 4754.0, 4760.0, 4734.0, 4762.0, 4756.0, 4760.0, 4758.0, 4762.0, 4758.0, 4738.0, 4734.0, 4760.0, 4758.0, 4760.0, 4760.0, 4760.0, 4736.0, 4760.0, 4760.0, 4762.0, 4758.0, 4766.0, 4760.0, 4758.0, 4758.0, 4756.0, 4762.0, 4734.0, 4764.0, 4760.0, 4762.0, 4754.0, 4760.0, 4758.0, 4760.0, 4758.0, 4760.0, 4758.0, 4754.0, 4762.0, 4762.0, 4756.0, 4732.0, 4766.0, 4764.0, 4754.0, 4756.0, 4756.0, 4758.0, 4758.0, 4738.0, 4762.0, 4764.0, 4762.0, 4762.0, 4756.0, 4734.0, 4760.0, 4754.0, 4754.0, 4754.0, 4760.0, 4760.0, 4762.0, 4764.0, 4762.0, 4766.0, 4760.0, 4762.0, 4760.0, 4760.0, 4760.0, 4760.0, 4756.0, 4764.0, 4760.0, 4764.0, 4760.0, 4762.0, 4760.0, 4774.0, 4764.0, 4758.0, 4754.0, 4756.0, 4758.0, 4762.0, 4762.0, 4766.0, 4764.0, 4764.0, 4760.0, 4774.0, 4766.0, 4754.0, 4756.0, 4754.0, 4752.0, 4760.0, 4768.0, 4778.0, 4804.0, 4774.0, 4752.0, 4748.0, 4748.0, 4756.0, 4758.0, 4758.0, 4736.0, 4768.0, 4766.0, 4760.0, 4766.0, 4760.0, 4756.0, 4734.0, 4756.0, 4758.0, 4768.0, 4758.0, 4766.0, 4762.0, 4764.0, 4758.0, 4762.0, 4736.0, 4764.0, 4758.0, 4762.0, 4740.0],
      "WindowWidth": [18534.0, 18536.0, 18528.0, 18538.0, 18528.0, 18532.0, 18532.0, 18530.0, 18534.0, 18524.0, 18530.0, 18528.0, 18532.0, 18526.0, 18500.0, 18530.0, 18530.0, 18526.0, 18536.0, 18532.0, 18530.0, 18532.0, 18536.0, 18538.0, 18534.0, 18536.0, 18536.0, 18530.0, 18508.0, 18542.0, 18524.0, 18534.0, 18544.0, 18550.0, 18550.0, 18542.0, 18530.0, 18528.0, 18520.0, 18520.0, 18516.0, 18528.0, 18530.0, 18540.0, 18532.0, 18542.0, 18536.0, 18534.0, 18532.0, 18530.0, 18530.0, 18492.0, 18522.0, 18500.0, 18526.0, 18532.0, 18538.0, 18530.0, 18534.0, 18528.0, 18536.0, 18494.0, 18524.0, 18530.0, 18528.0, 18530.0, 18530.0, 18532.0, 18500.0, 18532.0, 18530.0, 18534.0, 18528.0, 18500.0, 18530.0, 18526.0, 18526.0, 18536.0, 18528.0, 18534.0, 18500.0, 18502.0, 18528.0, 18534.0, 18526.0, 18532.0, 18530.0, 18504.0, 18530.0, 18538.0, 18534.0, 18528.0, 18530.0, 18534.0, 18534.0, 18536.0, 18530.0, 18528.0, 18498.0, 18526.0, 18530.0, 18530.0, 18530.0, 18530.0, 18530.0, 18532.0, 18534.0, 18530.0, 18532.0, 18528.0, 18526.0, 18526.0, 18532.0, 18500.0, 18524.0, 18524.0, 18538.0, 18534.0, 18540.0, 18532.0, 18536.0, 18496.0, 18526.0, 18526.0, 18524.0, 18528.0, 18528.0, 18500.0, 18532.0, 18534.0, 18526.0, 18528.0, 18526.0, 18528.0, 18528.0, 18524.0, 18526.0, 18530.0, 18528.0, 18534.0, 18530.0, 18530.0, 18526.0, 18532.0, 18528.0, 18532.0, 18530.0, 18528.0, 18530.0, 18528.0, 18528.0, 18524.0, 18532.0, 18534.0, 18536.0, 18534.0, 18532.0, 18530.0, 18526.0, 18530.0, 18526.0, 18524.0, 18524.0, 18516.0, 18526.0, 18536.0, 18536.0, 18534.0, 18532.0, 18532.0, 18528.0, 18516.0, 18538.0, 18522.0, 18532.0, 18544.0, 18546.0, 18536.0, 18528.0, 18528.0, 18490.0, 18522.0, 18522.0, 18528.0, 18524.0, 18530.0, 18534.0, 18502.0, 18528.0, 18526.0, 18528.0, 18526.0, 18528.0, 18534.0, 18530.0, 18530.0, 18526.0, 18500.0, 18530.0, 18530.0, 18530.0, 18500.0]
    },
    "slices": {}
  }
}