{
  "AcquisitionMatrixPE": 104,
  "AcquisitionNumber": 1,
  "AcquisitionTime": "19:48:30.890000",
  "BandwidthPerPixelPhaseEncode": 17.17,
  "BaseResolution": 104,
  "BodyPartExamined": "BRAIN",
  "CoilCombinationMethod": "Sum of Squares",
  "ConsistencyInfo": "N4_VE11C_LATEST_20160120",
  "ConversionSoftware": "dcm2niix",
  "ConversionSoftwareVersion": "v1.0.20230411",
  "DerivedVendorReportedEchoSpacing": 0.000560011,
  "DeviceSerialNumber": "167006",
  "DwellTime": 2.1e-06,
  "EchoTime": 0.037,
  "EchoTime1": 0.037,
  "EchoTime2": 0.001,
  "EchoTrainLength": 104,
  "EffectiveEchoSpacing": 0.000560011,
  "FlipAngle": 52,
  "HeudiconvVersion": "0.5.3.post861+ge7d3c7f",
  "ImageComments": "Unaliased MB4/PE3/LB",
  "ImageOrientationPatientDICOM": [0.999844, -0.0157676, 0.00795635, 0.0176269, 0.918964, -0.393947],
  "ImageOrientationText": "Tra>Cor(-23.2)>Sag(0.1)",
  "ImageType": [
    "ORIGINAL",
    "PRIMARY",
    "P",
    "MB",
    "ND",
    "MOSAIC",
    "PHASE"
],
  "ImagingFrequency": 123.249575,
  "InPlanePhaseEncodingDirectionDICOM": "COL",
  "InstitutionAddress": "Chemin Queen-Mary 4565,Montreal,District,CA,H3W 1W5",
  "InstitutionName": "IUGM",
  "InstitutionalDepartmentName": "Department",
  "MRAcquisitionType": "2D",
  "MagneticFieldStrength": 3,
  "Manufacturer": "Siemens",
  "ManufacturersModelName": "Prisma_fit",
  "MatrixCoilMode": "SENSE",
  "Modality": "MR",
  "MultibandAccelerationFactor": 4,
  "NonlinearGradientCorrection": false,
  "PartialFourier": 1,
  "PatientPosition": "HFS",
  "PercentPhaseFOV": 100,
  "PercentSampling": 100,
  "PhaseEncodingDirection": "j",
  "PhaseEncodingSteps": 104,
  "PhaseResolution": 1,
  "PixelBandwidth": 2290,
  "ProcedureStepDescription": "localizers^retinotopy",
  "ProtocolName": "func_task-bars",
  "PulseSequenceDetails": "%CustomerSeq%\\cmrr_mbep2d_bold",
  "ReceiveCoilActiveElements": "HC1-7;NC1,2",
  "ReceiveCoilName": "HeadNeck_64",
  "ReconMatrixPE": 104,
  "RepetitionTime": 1.49,
  "SAR": 0.0690401,
  "ScanOptions": "FS",
  "ScanningSequence": "EP",
  "SequenceName": "epfid2d1_104",
  "SequenceVariant": "SK\\SS",
  "SeriesDescription": "func_task-bars",
  "SeriesNumber": 17,
  "ShimSetting": [585, -7279, -8834, 323, 28, -402, -32, 115],
  "SliceThickness": 2,
  "SliceTiming": [0, 0.7825, 0.0975, 0.8825, 0.195, 0.98, 0.2925, 1.0775, 0.3925, 1.175, 0.49, 1.2725, 0.5875, 1.3725, 0.685, 0, 0.7825, 0.0975, 0.8825, 0.195, 0.98, 0.2925, 1.0775, 0.3925, 1.175, 0.49, 1.2725, 0.5875, 1.3725, 0.685, 0, 0.7825, 0.0975, 0.8825, 0.195, 0.98, 0.2925, 1.0775, 0.3925, 1.175, 0.49, 1.2725, 0.5875, 1.3725, 0.685, 0, 0.7825, 0.0975, 0.8825, 0.195, 0.98, 0.2925, 1.0775, 0.3925, 1.175, 0.49, 1.2725, 0.5875, 1.3725, 0.685],
  "SoftwareVersions": "syngo MR E11",
  "SpacingBetweenSlices": 2,
  "StationName": "MRC35049",
  "TaskName": "bars",
  "TotalReadoutTime": 0.0576811,
  "TxRefAmp": 289.242,
  "WipMemBlock": "e3bb86db-ed64-4960-b557-ca7186b7c6b1||Sequence: R017 ve11c/master r/75a17815+; Jun 28 2022 16:32:11 by eja",
  "dcmmeta_affine": [
    [-1.9996880292892456, 0.035253897309303284, 0.0022000179160386324, 103.10713958740234],
    [0.031535111367702484, 1.8379278182983398, -0.7880525588989258, -60.75958251953125],
    [0.015912698581814766, 0.7878949642181396, 1.8381969928741455, -64.35636901855469],
    [0.0, 0.0, 0.0, 1.0]
],
  "dcmmeta_reorient_transform": [
    [0.0, -1.0, 0.0, 103.0],
    [1.0, 0.0, 0.0, 0.0],
    [0.0, 0.0, 1.0, 0.0],
    [0.0, 0.0, 0.0, 1.0]
],
  "dcmmeta_shape": [104, 104, 60, 202],
  "dcmmeta_slice_dim": 2,
  "dcmmeta_version": 0.6,
  "global": {
    "const": {
      "AcquisitionMatrix": [104, 0, 0, 104],
      "AngioFlag": "N",
      "BitsAllocated": 16,
      "BitsStored": 16,
      "BodyPartExamined": "BRAIN",
      "Columns": 832,
      "EchoNumbers": 1,
      "EchoTime": 37.0,
      "EchoTrainLength": 104,
      "FlipAngle": 52.0,
      "HighBit": 15,
      "ImageOrientationPatient": [0.99984402817693, -0.0157675559528, 0.00795634955274, 0.01762694809755, 0.91896390795971, -0.3939474921461],
      "ImagePositionPatient": [-847.45716399647, -786.07392785801, 297.79836865951],
      "ImageType": [
        "ORIGINAL",
        "PRIMARY",
        "P",
        "MB",
        "ND",
        "MOSAIC"
],
      "ImagedNucleus": "1H",
      "ImagingFrequency": 123.249575,
      "InPlanePhaseEncodingDirection": "COL",
      "LargestImagePixelValue": 4095,
      "MRAcquisitionType": "2D",
      "MagneticFieldStrength": 3.0,
      "Manufacturer": "SIEMENS",
      "ManufacturerModelName": "Prisma_fit",
      "Modality": "MR",
      "NumberOfAverages": 1.0,
      "NumberOfPhaseEncodingSteps": 104,
      "PercentPhaseFieldOfView": 100.0,
      "PercentSampling": 100.0,
      "PerformedProcedureStepStartTime": "193135.840000",
      "PhotometricInterpretation": "MONOCHROME2",
      "PixelBandwidth": 2290.0,
      "PixelRepresentation": 0,
      "PixelSpacing": [2.0, 2.0],
      "ProtocolName": "func_task-bars",
      "RepetitionTime": 1490.0,
      "RescaleIntercept": -4096.0,
      "RescaleSlope": 2.0,
      "RescaleType": "US",
      "Rows": 832,
      "SAR": 0.06904010457967,
      "SamplesPerPixel": 1,
      "ScanOptions": "FS",
      "ScanningSequence": "EP",
      "SequenceName": "epfid2d1_104",
      "SequenceVariant": [
        "SK",
        "SS"
],
      "SeriesDescription": "func_task-bars",
      "SeriesNumber": 17,
      "SeriesTime": "195003.139000",
      "SliceLocation": -35.095549091207,
      "SliceThickness": 2.0,
      "SmallestImagePixelValue": 0,
      "SoftwareVersions": "syngo MR E11",
      "SpacingBetweenSlices": 1.9999999624185,
      "SpecificCharacterSet": "ISO_IR 100",
      "StudyID": "1",
      "StudyTime": "193135.760000",
      "TransmitCoilName": "Body",
      "VariableFlipAngleFlag": "N",
      "WindowCenterWidthExplanation": "Algo1",
      "dBdt": 0.0},
    "slices": {}
  },
  "time": {
    "samples": {
      "AcquisitionNumber": [1, 2, 3, 4, 5, 6, 7, 8, 9, 10, 11, 12, 13, 14, 15, 16, 17, 18, 19, 20, 21, 22, 23, 24, 25, 26, 27, 28, 29, 30, 31, 32, 33, 34, 35, 36, 37, 38, 39, 40, 41, 42, 43, 44, 45, 46, 47, 48, 49, 50, 51, 52, 53, 54, 55, 56, 57, 58, 59, 60, 61, 62, 63, 64, 65, 66, 67, 68, 69, 70, 71, 72, 73, 74, 75, 76, 77, 78, 79, 80, 81, 82, 83, 84, 85, 86, 87, 88, 89, 90, 91, 92, 93, 94, 95, 96, 97, 98, 99, 100, 101, 102, 103, 104, 105, 106, 107, 108, 109, 110, 111, 112, 113, 114, 115, 116, 117, 118, 119, 120, 121, 122, 123, 124, 125, 126, 127, 128, 129, 130, 131, 132, 133, 134, 135, 136, 137, 138, 139, 140, 141, 142, 143, 144, 145, 146, 147, 148, 149, 150, 151, 152, 153, 154, 155, 156, 157, 158, 159, 160, 161, 162, 163, 164, 165, 166, 167, 168, 169, 170, 171, 172, 173, 174, 175, 176, 177, 178, 179, 180, 181, 182, 183, 184, 185, 186, 187, 188, 189, 190, 191, 192, 193, 194, 195, 196, 197, 198, 199, 200, 201, 202],
      "AcquisitionTime": ["194830.890000", "194832.380000", "194833.870000", "194835.360000", "194836.850000", "194838.340000", "194839.830000", "194841.320000", "194842.810000", "194844.300000", "194845.790000", "194847.280000", "194848.770000", "194850.260000", "194851.750000", "194853.240000", "194854.730000", "194856.220000", "194857.710000", "194859.200000", "194900.690000", "194902.180000", "194903.670000", "194905.160000", "194906.650000", "194908.140000", "194909.630000", "194911.120000", "194912.610000", "194914.100000", "194915.590000", "194917.080000", "194918.570000", "194920.060000", "194921.550000", "194923.040000", "194924.530000", "194926.020000", "194927.510000", "194929.000000", "194930.490000", "194931.980000", "194933.470000", "194934.960000", "194936.450000", "194937.940000", "194939.430000", "194940.920000", "194942.410000", "194943.900000", "194945.390000", "194946.880000", "194948.370000", "194949.860000", "194951.350000", "194952.840000", "194954.330000", "194955.820000", "194957.310000", "194958.800000", "195000.290000", "195001.780000", "195003.270000", "195004.760000", "195006.250000", "195007.740000", "195009.230000", "195010.720000", "195012.210000", "195013.700000", "195015.190000", "195016.680000", "195018.170000", "195019.660000", "195021.150000", "195022.640000", "195024.130000", "195025.620000", "195027.110000", "195028.600000", "195030.090000", "195031.580000", "195033.070000", "195034.560000", "195036.050000", "195037.540000", "195039.030000", "195040.520000", "195042.010000", "195043.500000", "195044.990000", "195046.480000", "195047.970000", "195049.460000", "195050.950000", "195052.440000", "195053.930000", "195055.420000", "195056.910000", "195058.400000", "195059.890000", "195101.380000", "195102.870000", "195104.360000", "195105.850000", "195107.340000", "195108.830000", "195110.320000", "195111.810000", "195113.300000", "195114.790000", "195116.280000", "195117.770000", "195119.260000", "195120.750000", "195122.240000", "195123.730000", "195125.220000", "195126.710000", "195128.200000", "195129.690000", "195131.180000", "195132.670000", "195134.160000", "195135.650000", "195137.140000", "195138.630000", "195140.120000", "195141.610000", "195143.100000", "195144.590000", "195146.080000", "195147.570000", "195149.060000", "195150.550000", "195152.040000", "195153.530000", "195155.020000", "195156.510000", "195158.000000", "195159.490000", "195200.980000", "195202.470000", "195203.960000", "195205.450000", "195206.940000", "195208.430000", "195209.920000", "195211.410000", "195212.900000", "195214.390000", "195215.880000", "195217.370000", "195218.860000", "195220.350000", "195221.840000", "195223.330000", "195224.820000", "195226.310000", "195227.800000", "195229.290000", "195230.780000", "195232.270000", "195233.760000", "195235.250000", "195236.740000", "195238.230000", "195239.720000", "195241.210000", "195242.700000", "195244.190000", "195245.680000", "195247.170000", "195248.660000", "195250.150000", "195251.640000", "195253.130000", "195254.620000", "195256.110000", "195257.600000", "195259.090000", "195300.580000", "195302.070000", "195303.560000", "195305.050000", "195306.540000", "195308.030000", "195309.520000", "195311.010000", "195312.500000", "195313.990000", "195315.480000", "195316.970000", "195318.460000", "195319.950000", "195321.440000", "195322.930000", "195324.420000", "195325.910000", "195327.400000", "195328.890000", "195330.380000"],
      "ContentTime": ["195003.141000", "195003.144000", "195003.147000", "195003.149000", "195003.152000", "195003.155000", "195003.157000", "195003.163000", "195003.165000", "195003.168000", "195003.170000", "195003.173000", "195003.175000", "195003.178000", "195003.180000", "195003.188000", "195003.190000", "195003.193000", "195003.195000", "195003.198000", "195003.201000", "195003.203000", "195003.206000", "195003.208000", "195003.211000", "195003.213000", "195003.216000", "195003.219000", "195003.221000", "195003.224000", "195003.226000", "195023.035000", "195023.038000", "195023.040000", "195023.043000", "195023.045000", "195023.048000", "195023.050000", "195023.053000", "195023.055000", "195023.058000", "195023.060000", "195023.063000", "195023.066000", "195023.068000", "195023.071000", "195023.073000", "195023.076000", "195023.078000", "195023.081000", "195023.083000", "195023.086000", "195043.021000", "195043.024000", "195043.026000", "195043.029000", "195043.031000", "195043.034000", "195043.037000", "195043.039000", "195043.042000", "195043.044000", "195043.047000", "195043.049000", "195043.052000", "195043.054000", "195043.057000", "195043.059000", "195043.062000", "195043.064000", "195043.067000", "195043.069000", "195103.036000", "195103.039000", "195103.042000", "195103.044000", "195103.047000", "195103.049000", "195103.052000", "195103.055000", "195103.057000", "195103.060000", "195103.063000", "195103.065000", "195103.068000", "195103.071000", "195103.073000", "195103.076000", "195103.078000", "195103.081000", "195103.084000", "195103.086000", "195143.064000", "195143.067000", "195143.070000", "195143.073000", "195143.075000", "195143.078000", "195143.081000", "195143.083000", "195143.086000", "195143.089000", "195143.091000", "195143.094000", "195143.096000", "195143.099000", "195143.102000", "195143.104000", "195143.107000", "195143.109000", "195143.112000", "195143.115000", "195143.117000", "195143.120000", "195143.122000", "195143.125000", "195143.127000", "195143.130000", "195143.133000", "195223.059000", "195223.061000", "195223.064000", "195223.067000", "195223.069000", "195223.072000", "195223.074000", "195223.077000", "195223.080000", "195223.083000", "195223.085000", "195223.088000", "195223.090000", "195223.093000", "195223.095000", "195223.098000", "195223.101000", "195223.104000", "195223.106000", "195223.109000", "195223.111000", "195223.114000", "195223.117000", "195223.119000", "195223.122000", "195223.125000", "195223.128000", "195303.064000", "195303.067000", "195303.070000", "195303.072000", "195303.075000", "195303.077000", "195303.080000", "195303.083000", "195303.085000", "195303.088000", "195303.091000", "195303.093000", "195303.096000", "195303.098000", "195303.101000", "195303.104000", "195303.106000", "195303.109000", "195303.111000", "195303.114000", "195303.116000", "195303.119000", "195303.122000", "195303.124000", "195303.127000", "195303.129000", "195303.132000", "195343.058000", "195343.061000", "195343.064000", "195343.066000", "195343.069000", "195343.071000", "195343.074000", "195343.076000", "195343.079000", "195343.081000", "195343.084000", "195343.086000", "195343.089000", "195343.092000", "195343.094000", "195343.097000", "195343.099000", "195343.102000", "195343.104000", "195343.107000", "195343.109000", "195343.112000", "195343.115000", "195343.117000", "195343.120000", "195343.122000", "195343.125000", "195345.195000", "195345.198000"],
      "InstanceCreationTime": ["195003.141000", "195003.144000", "195003.147000", "195003.149000", "195003.152000", "195003.155000", "195003.157000", "195003.163000", "195003.165000", "195003.168000", "195003.170000", "195003.173000", "195003.175000", "195003.178000", "195003.180000", "195003.188000", "195003.190000", "195003.193000", "195003.195000", "195003.198000", "195003.201000", "195003.203000", "195003.206000", "195003.208000", "195003.211000", "195003.213000", "195003.216000", "195003.219000", "195003.221000", "195003.224000", "195003.226000", "195023.035000", "195023.038000", "195023.040000", "195023.043000", "195023.045000", "195023.048000", "195023.050000", "195023.053000", "195023.055000", "195023.058000", "195023.060000", "195023.063000", "195023.066000", "195023.068000", "195023.071000", "195023.073000", "195023.076000", "195023.078000", "195023.081000", "195023.083000", "195023.086000", "195043.021000", "195043.024000", "195043.026000", "195043.029000", "195043.031000", "195043.034000", "195043.037000", "195043.039000", "195043.042000", "195043.044000", "195043.047000", "195043.049000", "195043.052000", "195043.054000", "195043.057000", "195043.059000", "195043.062000", "195043.064000", "195043.067000", "195043.069000", "195103.036000", "195103.039000", "195103.042000", "195103.044000", "195103.047000", "195103.049000", "195103.052000", "195103.055000", "195103.057000", "195103.060000", "195103.063000", "195103.065000", "195103.068000", "195103.071000", "195103.073000", "195103.076000", "195103.078000", "195103.081000", "195103.084000", "195103.086000", "195143.064000", "195143.067000", "195143.070000", "195143.073000", "195143.075000", "195143.078000", "195143.081000", "195143.083000", "195143.086000", "195143.089000", "195143.091000", "195143.094000", "195143.096000", "195143.099000", "195143.102000", "195143.104000", "195143.107000", "195143.109000", "195143.112000", "195143.115000", "195143.117000", "195143.120000", "195143.122000", "195143.125000", "195143.127000", "195143.130000", "195143.133000", "195223.059000", "195223.061000", "195223.064000", "195223.067000", "195223.069000", "195223.072000", "195223.074000", "195223.077000", "195223.080000", "195223.083000", "195223.085000", "195223.088000", "195223.090000", "195223.093000", "195223.095000", "195223.098000", "195223.101000", "195223.104000", "195223.106000", "195223.109000", "195223.111000", "195223.114000", "195223.117000", "195223.119000", "195223.122000", "195223.125000", "195223.128000", "195303.064000", "195303.067000", "195303.070000", "195303.072000", "195303.075000", "195303.077000", "195303.080000", "195303.083000", "195303.085000", "195303.088000", "195303.091000", "195303.093000", "195303.096000", "195303.098000", "195303.101000", "195303.104000", "195303.106000", "195303.109000", "195303.111000", "195303.114000", "195303.116000", "195303.119000", "195303.122000", "195303.124000", "195303.127000", "195303.129000", "195303.132000", "195343.058000", "195343.061000", "195343.064000", "195343.066000", "195343.069000", "195343.071000", "195343.074000", "195343.076000", "195343.079000", "195343.081000", "195343.084000", "195343.086000", "195343.089000", "195343.092000", "195343.094000", "195343.097000", "195343.099000", "195343.102000", "195343.104000", "195343.107000", "195343.109000", "195343.112000", "195343.115000", "195343.117000", "195343.120000", "195343.122000", "195343.125000", "195345.195000", "195345.198000"],
      "InstanceNumber": [1, 2, 3, 4, 5, 6, 7, 8, 9, 10, 11, 12, 13, 14, 15, 16, 17, 18, 19, 20, 21, 22, 23, 24, 25, 26, 27, 28, 29, 30, 31, 32, 33, 34, 35, 36, 37, 38, 39, 40, 41, 42, 43, 44, 45, 46, 47, 48, 49, 50, 51, 52, 53, 54, 55, 56, 57, 58, 59, 60, 61, 62, 63, 64, 65, 66, 67, 68, 69, 70, 71, 72, 73, 74, 75, 76, 77, 78, 79, 80, 81, 82, 83, 84, 85, 86, 87, 88, 89, 90, 91, 92, 93, 94, 95, 96, 97, 98, 99, 100, 101, 102, 103, 104, 105, 106, 107, 108, 109, 110, 111, 112, 113, 114, 115, 116, 117, 118, 119, 120, 121, 122, 123, 124, 125, 126, 127, 128, 129, 130, 131, 132, 133, 134, 135, 136, 137, 138, 139, 140, 141, 142, 143, 144, 145, 146, 147, 148, 149, 150, 151, 152, 153, 154, 155, 156, 157, 158, 159, 160, 161, 162, 163, 164, 165, 166, 167, 168, 169, 170, 171, 172, 173, 174, 175, 176, 177, 178, 179, 180, 181, 182, 183, 184, 185, 186, 187, 188, 189, 190, 191, 192, 193, 194, 195, 196, 197, 198, 199, 200, 201, 202],
      "WindowCenter": [4748.0, 4756.0, 4750.0, 4754.0, 4756.0, 4744.0, 4744.0, 4742.0, 4750.0, 4746.0, 4746.0, 4750.0, 4754.0, 4756.0, 4758.0, 4728.0, 4756.0, 4746.0, 4744.0, 4746.0, 4744.0, 4744.0, 4744.0, 4752.0, 4728.0, 4752.0, 4756.0, 4750.0, 4750.0, 4754.0, 4750.0, 4754.0, 4750.0, 4758.0, 4752.0, 4750.0, 4748.0, 4750.0, 4750.0, 4730.0, 4750.0, 4752.0, 4748.0, 4730.0, 4748.0, 4752.0, 4744.0, 4750.0, 4746.0, 4728.0, 4750.0, 4748.0, 4752.0, 4750.0, 4750.0, 4750.0, 4750.0, 4746.0, 4754.0, 4758.0, 4754.0, 4744.0, 4744.0, 4744.0, 4748.0, 4748.0, 4728.0, 4730.0, 4756.0, 4754.0, 4756.0, 4752.0, 4760.0, 4752.0, 4742.0, 4746.0, 4744.0, 4742.0, 4748.0, 4754.0, 4754.0, 4760.0, 4754.0, 4734.0, 4728.0, 4750.0, 4724.0, 4744.0, 4748.0, 4744.0, 4726.0, 4750.0, 4748.0, 4754.0, 4730.0, 4758.0, 4760.0, 4748.0, 4742.0, 4744.0, 4746.0, 4724.0, 4750.0, 4762.0, 4754.0, 4748.0, 4726.0, 4748.0, 4744.0, 4744.0, 4748.0, 4732.0, 4760.0, 4754.0, 4762.0, 4750.0, 4756.0, 4752.0, 4746.0, 4742.0, 4722.0, 4724.0, 4752.0, 4728.0, 4730.0, 4756.0, 4748.0, 4728.0, 4746.0, 4746.0, 4750.0, 4724.0, 4724.0, 4724.0, 4728.0, 4750.0, 4750.0, 4724.0, 4750.0, 4724.0, 4728.0, 4746.0, 4748.0, 4748.0, 4752.0, 4750.0, 4748.0, 4726.0, 4746.0, 4726.0, 4746.0, 4724.0, 4746.0, 4752.0, 4748.0, 4728.0, 4748.0, 4750.0, 4724.0, 4726.0, 4750.0, 4724.0, 4748.0, 4724.0, 4764.0, 4772.0, 4758.0, 4746.0, 4740.0, 4738.0, 4740.0, 4718.0, 4728.0, 4758.0, 4738.0, 4760.0, 4754.0, 4766.0, 4760.0, 4746.0, 4742.0, 4742.0, 4744.0, 4744.0, 4748.0, 4750.0, 4760.0, 4738.0, 4770.0, 4732.0, 4746.0, 4742.0, 4744.0, 4742.0, 4720.0, 4728.0, 4728.0, 4766.0, 4758.0, 4738.0, 4728.0, 4730.0],
      "WindowWidth": [18538.0, 18536.0, 18534.0, 18538.0, 18538.0, 18538.0, 18542.0, 18542.0, 18540.0, 18536.0, 18536.0, 18534.0, 18532.0, 18534.0, 18524.0, 18500.0, 18528.0, 18532.0, 18538.0, 18538.0, 18542.0, 18542.0, 18532.0, 18538.0, 18502.0, 18534.0, 18536.0, 18530.0, 18534.0, 18530.0, 18540.0, 18536.0, 18536.0, 18540.0, 18540.0, 18544.0, 18536.0, 18536.0, 18538.0, 18502.0, 18534.0, 18530.0, 18534.0, 18498.0, 18534.0, 18542.0, 18540.0, 18538.0, 18542.0, 18504.0, 18538.0, 18528.0, 18540.0, 18532.0, 18532.0, 18532.0, 18536.0, 18538.0, 18538.0, 18524.0, 18532.0, 18542.0, 18540.0, 18544.0, 18538.0, 18538.0, 18500.0, 18502.0, 18532.0, 18532.0, 18534.0, 18538.0, 18528.0, 18536.0, 18540.0, 18542.0, 18548.0, 18540.0, 18536.0, 18532.0, 18528.0, 18530.0, 18534.0, 18504.0, 18502.0, 18542.0, 18504.0, 18540.0, 18538.0, 18540.0, 18506.0, 18536.0, 18534.0, 18536.0, 18502.0, 18536.0, 18524.0, 18532.0, 18538.0, 18540.0, 18546.0, 18508.0, 18536.0, 18526.0, 18532.0, 18534.0, 18502.0, 18542.0, 18538.0, 18536.0, 18540.0, 18506.0, 18530.0, 18538.0, 18534.0, 18538.0, 18536.0, 18534.0, 18544.0, 18542.0, 18508.0, 18506.0, 18532.0, 18498.0, 18504.0, 18532.0, 18530.0, 18504.0, 18540.0, 18538.0, 18542.0, 18502.0, 18506.0, 18500.0, 18500.0, 18530.0, 18530.0, 18504.0, 18536.0, 18504.0, 18504.0, 18536.0, 18536.0, 18536.0, 18534.0, 18536.0, 18532.0, 18506.0, 18538.0, 18504.0, 18534.0, 18502.0, 18534.0, 18536.0, 18536.0, 18502.0, 18538.0, 18534.0, 18502.0, 18502.0, 18542.0, 18502.0, 18538.0, 18504.0, 18522.0, 18518.0, 18526.0, 18540.0, 18546.0, 18542.0, 18546.0, 18508.0, 18504.0, 18532.0, 18492.0, 18528.0, 18530.0, 18532.0, 18530.0, 18538.0, 18546.0, 18546.0, 18550.0, 18538.0, 18538.0, 18534.0, 18524.0, 18498.0, 18524.0, 18504.0, 18538.0, 18536.0, 18548.0, 18540.0, 18506.0, 18506.0, 18500.0, 18532.0, 18532.0, 18496.0, 18506.0, 18502.0]
    },
    "slices": {}
  }
}