{
  "AcquisitionMatrixPE": 104,
  "AcquisitionNumber": 1,
  "AcquisitionTime": "19:35:3.095000",
  "BandwidthPerPixelPhaseEncode": 17.17,
  "BaseResolution": 104,
  "BodyPartExamined": "BRAIN",
  "CoilCombinationMethod": "Sum of Squares",
  "ConsistencyInfo": "N4_VE11C_LATEST_20160120",
  "ConversionSoftware": "dcm2niix",
  "ConversionSoftwareVersion": "v1.0.20230411",
  "DerivedVendorReportedEchoSpacing": 0.000560011,
  "DeviceSerialNumber": "167006",
  "DwellTime": 2.1e-06,
  "EchoTime": 0.037,
  "EchoTrainLength": 104,
  "EffectiveEchoSpacing": 0.000560011,
  "FlipAngle": 52,
  "HeudiconvVersion": "0.5.3.post861+ge7d3c7f",
  "ImageComments": "Unaliased MB4/PE3/LB",
  "ImageOrientationPatientDICOM": [0.999844, -0.0157676, 0.00795635, 0.0176269, 0.918964, -0.393947],
  "ImageOrientationText": "Tra>Cor(-23.2)>Sag(0.1)",
  "ImageType": [
    "ORIGINAL",
    "PRIMARY",
    "M",
    "MB",
    "ND",
    "MOSAIC"
],
  "ImagingFrequency": 123.249573,
  "InPlanePhaseEncodingDirectionDICOM": "COL",
  "InstitutionAddress": "Chemin Queen-Mary 4565,Montreal,District,CA,H3W 1W5",
  "InstitutionName": "IUGM",
  "InstitutionalDepartmentName": "Department",
  "MRAcquisitionType": "2D",
  "MagneticFieldStrength": 3,
  "Manufacturer": "Siemens",
  "ManufacturersModelName": "Prisma_fit",
  "MatrixCoilMode": "SENSE",
  "Modality": "MR",
  "MultibandAccelerationFactor": 4,
  "NonlinearGradientCorrection": false,
  "PartialFourier": 1,
  "PatientPosition": "HFS",
  "PercentPhaseFOV": 100,
  "PercentSampling": 100,
  "PhaseEncodingDirection": "j",
  "PhaseEncodingSteps": 104,
  "PhaseResolution": 1,
  "PixelBandwidth": 2290,
  "ProcedureStepDescription": "localizers^retinotopy",
  "ProtocolName": "func_task-wedges",
  "PulseSequenceDetails": "%CustomerSeq%\\cmrr_mbep2d_bold",
  "ReceiveCoilActiveElements": "HC1-7;NC1,2",
  "ReceiveCoilName": "HeadNeck_64",
  "ReconMatrixPE": 104,
  "RepetitionTime": 1.49,
  "SAR": 0.0690401,
  "ScanOptions": "FS",
  "ScanningSequence": "EP",
  "SequenceName": "epfid2d1_104",
  "SequenceVariant": "SK\\SS",
  "SeriesDescription": "func_task-wedges",
  "SeriesNumber": 10,
  "ShimSetting": [585, -7279, -8834, 323, 28, -402, -32, 115],
  "SliceThickness": 2,
  "SliceTiming": [0, 0.785, 0.1, 0.8825, 0.1975, 0.98, 0.295, 1.0775, 0.3925, 1.1775, 0.49, 1.275, 0.5875, 1.3725, 0.6875, 0, 0.785, 0.1, 0.8825, 0.1975, 0.98, 0.295, 1.0775, 0.3925, 1.1775, 0.49, 1.275, 0.5875, 1.3725, 0.6875, 0, 0.785, 0.1, 0.8825, 0.1975, 0.98, 0.295, 1.0775, 0.3925, 1.1775, 0.49, 1.275, 0.5875, 1.3725, 0.6875, 0, 0.785, 0.1, 0.8825, 0.1975, 0.98, 0.295, 1.0775, 0.3925, 1.1775, 0.49, 1.275, 0.5875, 1.3725, 0.6875],
  "SoftwareVersions": "syngo MR E11",
  "SpacingBetweenSlices": 2,
  "StationName": "MRC35049",
  "TaskName": "wedges",
  "TotalReadoutTime": 0.0576811,
  "TxRefAmp": 289.242,
  "WipMemBlock": "949795e6-9bca-4e78-972a-88d4f38c396b||Sequence: R017 ve11c/master r/75a17815+; Jun 28 2022 16:32:11 by eja",
  "dcmmeta_affine": [
    [-1.9996880292892456, 0.035253897309303284, 0.0022000179160386324, 103.10713958740234],
    [0.031535111367702484, 1.8379278182983398, -0.7880525588989258, -60.75958251953125],
    [0.015912698581814766, 0.7878949642181396, 1.8381969928741455, -64.35636901855469],
    [0.0, 0.0, 0.0, 1.0]
],
  "dcmmeta_reorient_transform": [
    [0.0, -1.0, 0.0, 103.0],
    [1.0, 0.0, 0.0, 0.0],
    [0.0, 0.0, 1.0, 0.0],
    [0.0, 0.0, 0.0, 1.0]
],
  "dcmmeta_shape": [104, 104, 60, 202],
  "dcmmeta_slice_dim": 2,
  "dcmmeta_version": 0.6,
  "global": {
    "const": {
      "AcquisitionMatrix": [104, 0, 0, 104],
      "AngioFlag": "N",
      "BitsAllocated": 16,
      "BitsStored": 16,
      "BodyPartExamined": "BRAIN",
      "Columns": 832,
      "EchoNumbers": 1,
      "EchoTime": 37.0,
      "EchoTrainLength": 104,
      "FlipAngle": 52.0,
      "HighBit": 15,
      "ImageOrientationPatient": [0.99984402817693, -0.0157675559528, 0.00795634955274, 0.01762694809755, 0.91896390795971, -0.3939474921461],
      "ImagePositionPatient": [-847.45716399647, -786.07392785801, 297.79836865951],
      "ImageType": [
        "ORIGINAL",
        "PRIMARY",
        "M",
        "MB",
        "ND",
        "MOSAIC"
],
      "ImagedNucleus": "1H",
      "ImagingFrequency": 123.249573,
      "InPlanePhaseEncodingDirection": "COL",
      "MRAcquisitionType": "2D",
      "MagneticFieldStrength": 3.0,
      "Manufacturer": "SIEMENS",
      "ManufacturerModelName": "Prisma_fit",
      "Modality": "MR",
      "NumberOfAverages": 1.0,
      "NumberOfPhaseEncodingSteps": 104,
      "PercentPhaseFieldOfView": 100.0,
      "PercentSampling": 100.0,
      "PerformedProcedureStepStartTime": "193135.840000",
      "PhotometricInterpretation": "MONOCHROME2",
      "PixelBandwidth": 2290.0,
      "PixelRepresentation": 0,
      "PixelSpacing": [2.0, 2.0],
      "ProtocolName": "func_task-wedges",
      "RepetitionTime": 1490.0,
      "Rows": 832,
      "SAR": 0.06904010457967,
      "SamplesPerPixel": 1,
      "ScanOptions": "FS",
      "ScanningSequence": "EP",
      "SequenceName": "epfid2d1_104",
      "SequenceVariant": [
        "SK",
        "SS"
],
      "SeriesDescription": "func_task-wedges",
      "SeriesNumber": 10,
      "SeriesTime": "193638.714000",
      "SliceLocation": -35.095549091207,
      "SliceThickness": 2.0,
      "SmallestImagePixelValue": 0,
      "SoftwareVersions": "syngo MR E11",
      "SpacingBetweenSlices": 1.9999999624185,
      "SpecificCharacterSet": "ISO_IR 100",
      "StudyID": "1",
      "StudyTime": "193135.760000",
      "TransmitCoilName": "Body",
      "VariableFlipAngleFlag": "N",
      "WindowCenterWidthExplanation": "Algo1",
      "dBdt": 0.0},
    "slices": {}
  },
  "time": {
    "samples": {
      "AcquisitionNumber": [1, 2, 3, 4, 5, 6, 7, 8, 9, 10, 11, 12, 13, 14, 15, 16, 17, 18, 19, 20, 21, 22, 23, 24, 25, 26, 27, 28, 29, 30, 31, 32, 33, 34, 35, 36, 37, 38, 39, 40, 41, 42, 43, 44, 45, 46, 47, 48, 49, 50, 51, 52, 53, 54, 55, 56, 57, 58, 59, 60, 61, 62, 63, 64, 65, 66, 67, 68, 69, 70, 71, 72, 73, 74, 75, 76, 77, 78, 79, 80, 81, 82, 83, 84, 85, 86, 87, 88, 89, 90, 91, 92, 93, 94, 95, 96, 97, 98, 99, 100, 101, 102, 103, 104, 105, 106, 107, 108, 109, 110, 111, 112, 113, 114, 115, 116, 117, 118, 119, 120, 121, 122, 123, 124, 125, 126, 127, 128, 129, 130, 131, 132, 133, 134, 135, 136, 137, 138, 139, 140, 141, 142, 143, 144, 145, 146, 147, 148, 149, 150, 151, 152, 153, 154, 155, 156, 157, 158, 159, 160, 161, 162, 163, 164, 165, 166, 167, 168, 169, 170, 171, 172, 173, 174, 175, 176, 177, 178, 179, 180, 181, 182, 183, 184, 185, 186, 187, 188, 189, 190, 191, 192, 193, 194, 195, 196, 197, 198, 199, 200, 201, 202],
      "AcquisitionTime": ["193503.095000", "193504.585000", "193506.075000", "193507.565000", "193509.055000", "193510.545000", "193512.035000", "193513.525000", "193515.015000", "193516.505000", "193517.995000", "193519.485000", "193520.975000", "193522.465000", "193523.955000", "193525.445000", "193526.935000", "193528.425000", "193529.915000", "193531.405000", "193532.895000", "193534.385000", "193535.875000", "193537.365000", "193538.855000", "193540.345000", "193541.835000", "193543.325000", "193544.815000", "193546.305000", "193547.795000", "193549.285000", "193550.775000", "193552.265000", "193553.755000", "193555.245000", "193556.735000", "193558.225000", "193559.715000", "193601.205000", "193602.695000", "193604.185000", "193605.675000", "193607.165000", "193608.655000", "193610.145000", "193611.635000", "193613.125000", "193614.615000", "193616.105000", "193617.595000", "193619.085000", "193620.575000", "193622.065000", "193623.555000", "193625.045000", "193626.535000", "193628.025000", "193629.515000", "193631.005000", "193632.495000", "193633.985000", "193635.475000", "193636.965000", "193638.455000", "193639.945000", "193641.435000", "193642.925000", "193644.415000", "193645.905000", "193647.395000", "193648.885000", "193650.375000", "193651.865000", "193653.355000", "193654.845000", "193656.335000", "193657.825000", "193659.315000", "193700.805000", "193702.295000", "193703.785000", "193705.275000", "193706.765000", "193708.255000", "193709.745000", "193711.235000", "193712.725000", "193714.215000", "193715.705000", "193717.195000", "193718.685000", "193720.175000", "193721.665000", "193723.155000", "193724.645000", "193726.135000", "193727.625000", "193729.115000", "193730.605000", "193732.095000", "193733.585000", "193735.075000", "193736.565000", "193738.055000", "193739.545000", "193741.035000", "193742.525000", "193744.015000", "193745.505000", "193746.995000", "193748.485000", "193749.975000", "193751.465000", "193752.955000", "193754.445000", "193755.935000", "193757.425000", "193758.915000", "193800.405000", "193801.895000", "193803.385000", "193804.875000", "193806.365000", "193807.855000", "193809.345000", "193810.835000", "193812.325000", "193813.815000", "193815.305000", "193816.795000", "193818.285000", "193819.775000", "193821.265000", "193822.755000", "193824.245000", "193825.735000", "193827.225000", "193828.715000", "193830.205000", "193831.695000", "193833.185000", "193834.675000", "193836.165000", "193837.655000", "193839.145000", "193840.635000", "193842.125000", "193843.615000", "193845.105000", "193846.595000", "193848.085000", "193849.575000", "193851.065000", "193852.555000", "193854.045000", "193855.535000", "193857.025000", "193858.515000", "193900.005000", "193901.495000", "193902.985000", "193904.475000", "193905.965000", "193907.455000", "193908.945000", "193910.435000", "193911.925000", "193913.415000", "193914.905000", "193916.395000", "193917.885000", "193919.375000", "193920.865000", "193922.355000", "193923.845000", "193925.335000", "193926.825000", "193928.315000", "193929.805000", "193931.295000", "193932.785000", "193934.275000", "193935.765000", "193937.255000", "193938.745000", "193940.235000", "193941.725000", "193943.215000", "193944.705000", "193946.195000", "193947.685000", "193949.175000", "193950.665000", "193952.155000", "193953.645000", "193955.135000", "193956.625000", "193958.115000", "193959.605000", "194001.095000", "194002.585000"],
      "ContentTime": ["193638.717000", "193638.721000", "193638.724000", "193638.728000", "193638.731000", "193638.734000", "193638.738000", "193638.741000", "193638.745000", "193638.748000", "193638.751000", "193638.755000", "193638.758000", "193638.762000", "193638.765000", "193638.769000", "193638.772000", "193638.775000", "193638.779000", "193638.782000", "193638.785000", "193638.789000", "193638.792000", "193638.799000", "193638.803000", "193638.806000", "193638.809000", "193638.813000", "193638.816000", "193638.820000", "193638.823000", "193638.827000", "193638.830000", "193638.833000", "193658.678000", "193658.682000", "193658.685000", "193658.689000", "193658.692000", "193658.696000", "193658.699000", "193658.703000", "193658.706000", "193658.709000", "193658.713000", "193658.716000", "193658.720000", "193658.739000", "193658.742000", "193658.746000", "193658.749000", "193658.753000", "193658.756000", "193658.760000", "193718.678000", "193718.682000", "193718.685000", "193718.689000", "193718.692000", "193718.696000", "193718.699000", "193718.702000", "193718.706000", "193718.709000", "193718.713000", "193718.716000", "193718.719000", "193718.723000", "193718.726000", "193718.730000", "193718.733000", "193718.736000", "193718.740000", "193718.744000", "193718.747000", "193738.679000", "193738.682000", "193738.686000", "193738.689000", "193738.693000", "193738.696000", "193738.699000", "193738.703000", "193738.706000", "193738.709000", "193738.713000", "193738.716000", "193738.720000", "193738.723000", "193738.726000", "193738.730000", "193738.733000", "193738.737000", "193738.740000", "193738.743000", "193818.678000", "193818.682000", "193818.685000", "193818.689000", "193818.692000", "193818.695000", "193818.699000", "193818.702000", "193818.705000", "193818.709000", "193818.712000", "193818.716000", "193818.719000", "193818.722000", "193818.726000", "193818.729000", "193818.732000", "193818.736000", "193818.739000", "193818.743000", "193818.746000", "193818.749000", "193818.753000", "193818.756000", "193818.759000", "193818.763000", "193818.766000", "193858.678000", "193858.682000", "193858.685000", "193858.689000", "193858.692000", "193858.695000", "193858.699000", "193858.702000", "193858.705000", "193858.709000", "193858.712000", "193858.716000", "193858.719000", "193858.722000", "193858.726000", "193858.729000", "193858.732000", "193858.736000", "193858.739000", "193858.742000", "193858.746000", "193858.749000", "193858.752000", "193858.756000", "193858.759000", "193858.762000", "193858.766000", "193938.678000", "193938.682000", "193938.685000", "193938.689000", "193938.692000", "193938.696000", "193938.699000", "193938.703000", "193938.706000", "193938.709000", "193938.713000", "193938.716000", "193938.720000", "193938.723000", "193938.726000", "193938.730000", "193938.733000", "193938.736000", "193938.740000", "193938.743000", "193938.746000", "193938.750000", "193938.753000", "193938.757000", "193938.760000", "193938.764000", "194017.510000", "194017.513000", "194017.517000", "194017.520000", "194017.524000", "194017.527000", "194017.531000", "194017.534000", "194017.538000", "194017.541000", "194017.545000", "194017.548000", "194017.551000", "194017.555000", "194017.558000", "194017.561000", "194017.565000", "194017.568000", "194017.572000", "194017.575000", "194017.578000", "194017.582000", "194017.585000", "194017.589000", "194017.592000", "194017.595000", "194017.599000"],
      "InstanceCreationTime": ["193638.717000", "193638.721000", "193638.724000", "193638.728000", "193638.731000", "193638.734000", "193638.738000", "193638.741000", "193638.745000", "193638.748000", "193638.751000", "193638.755000", "193638.758000", "193638.762000", "193638.765000", "193638.769000", "193638.772000", "193638.775000", "193638.779000", "193638.782000", "193638.785000", "193638.789000", "193638.792000", "193638.799000", "193638.803000", "193638.806000", "193638.809000", "193638.813000", "193638.816000", "193638.820000", "193638.823000", "193638.827000", "193638.830000", "193638.833000", "193658.678000", "193658.682000", "193658.685000", "193658.689000", "193658.692000", "193658.696000", "193658.699000", "193658.703000", "193658.706000", "193658.709000", "193658.713000", "193658.716000", "193658.720000", "193658.739000", "193658.742000", "193658.746000", "193658.749000", "193658.753000", "193658.756000", "193658.760000", "193718.678000", "193718.682000", "193718.685000", "193718.689000", "193718.692000", "193718.696000", "193718.699000", "193718.702000", "193718.706000", "193718.709000", "193718.713000", "193718.716000", "193718.719000", "193718.723000", "193718.726000", "193718.730000", "193718.733000", "193718.736000", "193718.740000", "193718.744000", "193718.747000", "193738.679000", "193738.682000", "193738.686000", "193738.689000", "193738.693000", "193738.696000", "193738.699000", "193738.703000", "193738.706000", "193738.709000", "193738.713000", "193738.716000", "193738.720000", "193738.723000", "193738.726000", "193738.730000", "193738.733000", "193738.737000", "193738.740000", "193738.743000", "193818.678000", "193818.682000", "193818.685000", "193818.689000", "193818.692000", "193818.695000", "193818.699000", "193818.702000", "193818.705000", "193818.709000", "193818.712000", "193818.716000", "193818.719000", "193818.722000", "193818.726000", "193818.729000", "193818.732000", "193818.736000", "193818.739000", "193818.743000", "193818.746000", "193818.749000", "193818.753000", "193818.756000", "193818.759000", "193818.763000", "193818.766000", "193858.678000", "193858.682000", "193858.685000", "193858.689000", "193858.692000", "193858.695000", "193858.699000", "193858.702000", "193858.705000", "193858.709000", "193858.712000", "193858.716000", "193858.719000", "193858.722000", "193858.726000", "193858.729000", "193858.732000", "193858.736000", "193858.739000", "193858.742000", "193858.746000", "193858.749000", "193858.752000", "193858.756000", "193858.759000", "193858.762000", "193858.766000", "193938.678000", "193938.682000", "193938.685000", "193938.689000", "193938.692000", "193938.696000", "193938.699000", "193938.703000", "193938.706000", "193938.709000", "193938.713000", "193938.716000", "193938.720000", "193938.723000", "193938.726000", "193938.730000", "193938.733000", "193938.736000", "193938.740000", "193938.743000", "193938.746000", "193938.750000", "193938.753000", "193938.757000", "193938.760000", "193938.764000", "194017.510000", "194017.513000", "194017.517000", "194017.520000", "194017.524000", "194017.527000", "194017.531000", "194017.534000", "194017.538000", "194017.541000", "194017.545000", "194017.548000", "194017.551000", "194017.555000", "194017.558000", "194017.561000", "194017.565000", "194017.568000", "194017.572000", "194017.575000", "194017.578000", "194017.582000", "194017.585000", "194017.589000", "194017.592000", "194017.595000", "194017.599000"],
      "InstanceNumber": [1, 2, 3, 4, 5, 6, 7, 8, 9, 10, 11, 12, 13, 14, 15, 16, 17, 18, 19, 20, 21, 22, 23, 24, 25, 26, 27, 28, 29, 30, 31, 32, 33, 34, 35, 36, 37, 38, 39, 40, 41, 42, 43, 44, 45, 46, 47, 48, 49, 50, 51, 52, 53, 54, 55, 56, 57, 58, 59, 60, 61, 62, 63, 64, 65, 66, 67, 68, 69, 70, 71, 72, 73, 74, 75, 76, 77, 78, 79, 80, 81, 82, 83, 84, 85, 86, 87, 88, 89, 90, 91, 92, 93, 94, 95, 96, 97, 98, 99, 100, 101, 102, 103, 104, 105, 106, 107, 108, 109, 110, 111, 112, 113, 114, 115, 116, 117, 118, 119, 120, 121, 122, 123, 124, 125, 126, 127, 128, 129, 130, 131, 132, 133, 134, 135, 136, 137, 138, 139, 140, 141, 142, 143, 144, 145, 146, 147, 148, 149, 150, 151, 152, 153, 154, 155, 156, 157, 158, 159, 160, 161, 162, 163, 164, 165, 166, 167, 168, 169, 170, 171, 172, 173, 174, 175, 176, 177, 178, 179, 180, 181, 182, 183, 184, 185, 186, 187, 188, 189, 190, 191, 192, 193, 194, 195, 196, 197, 198, 199, 200, 201, 202],
      "LargestImagePixelValue": [61682, 59102, 58271, 58190, 57493, 57522, 56696, 56803, 56589, 56222, 56612, 55698, 56798, 56232, 56722, 55776, 55809, 56042, 55265, 54106, 55246, 55378, 55690, 55172, 54867, 54467, 54435, 54319, 54329, 55949, 56060, 55807, 55558, 54257, 56900, 53105, 53198, 53864, 54513, 54481, 55167, 55597, 55663, 55232, 54474, 54012, 52846, 53712, 53352, 53567, 53256, 53572, 53701, 54793, 54379, 55148, 54564, 55664, 54528, 53422, 54229, 53920, 55060, 54337, 54540, 54314, 54517, 54608, 52977, 54129, 53982, 54448, 53236, 54090, 53247, 53708, 53631, 53683, 52966, 53524, 53276, 53881, 53320, 53700, 53580, 53714, 53236, 53457, 53255, 53910, 53372, 53375, 55067, 55515, 54859, 54720, 55006, 54137, 54658, 54471, 54994, 54878, 55380, 54457, 54774, 54816, 54965, 54961, 55039, 54992, 54905, 55936, 56676, 55088, 55574, 56624, 56173, 55052, 56075, 55039, 55324, 54869, 54574, 55102, 55295, 54850, 55385, 54332, 54455, 54355, 53937, 53974, 54091, 54301, 54583, 54181, 54954, 54835, 54914, 54661, 54552, 54689, 54181, 54112, 54162, 54099, 54586, 53859, 54766, 54045, 54569, 55364, 55978, 55575, 55900, 54853, 55047, 54436, 54504, 54614, 55094, 54606, 55257, 54270, 55044, 54961, 54692, 54790, 54334, 54004, 54809, 54799, 55054, 56120, 55202, 55510, 55315, 54320, 54341, 54614, 54838, 54786, 55371, 55362, 54647, 55340, 54805, 54298, 54515, 54495, 55069, 55282, 53803, 55304, 54494, 54576, 54365, 54934, 54024, 54279, 54625, 55235],
      "WindowCenter": [10603.0, 10549.0, 10524.0, 10518.0, 10495.0, 10483.0, 10484.0, 10510.0, 10516.0, 10519.0, 10519.0, 10507.0, 10510.0, 10503.0, 10515.0, 10517.0, 10548.0, 10467.0, 10472.0, 10518.0, 10506.0, 10482.0, 10479.0, 10480.0, 10497.0, 10499.0, 10494.0, 10486.0, 10491.0, 10515.0, 10513.0, 10496.0, 10486.0, 10480.0, 10586.0, 10488.0, 10469.0, 10446.0, 10456.0, 10472.0, 10494.0, 10510.0, 10527.0, 10521.0, 10525.0, 10527.0, 10518.0, 10522.0, 10516.0, 10516.0, 10516.0, 10508.0, 10504.0, 10493.0, 10484.0, 10496.0, 10497.0, 10507.0, 10498.0, 10496.0, 10501.0, 10484.0, 10493.0, 10494.0, 10500.0, 10498.0, 10500.0, 10498.0, 10495.0, 10503.0, 10504.0, 10503.0, 10481.0, 10485.0, 10472.0, 10484.0, 10485.0, 10494.0, 10490.0, 10489.0, 10481.0, 10493.0, 10488.0, 10493.0, 10497.0, 10504.0, 10493.0, 10486.0, 10474.0, 10477.0, 10493.0, 10487.0, 10498.0, 10505.0, 10502.0, 10483.0, 10487.0, 10489.0, 10506.0, 10499.0, 10513.0, 10513.0, 10508.0, 10500.0, 10504.0, 10504.0, 10509.0, 10508.0, 10507.0, 10511.0, 10490.0, 10508.0, 10512.0, 10498.0, 10498.0, 10527.0, 10523.0, 10488.0, 10488.0, 10474.0, 10467.0, 10459.0, 10459.0, 10472.0, 10486.0, 10487.0, 10487.0, 10467.0, 10480.0, 10482.0, 10491.0, 10484.0, 10483.0, 10476.0, 10487.0, 10481.0, 10486.0, 10478.0, 10485.0, 10486.0, 10499.0, 10504.0, 10499.0, 10490.0, 10490.0, 10487.0, 10495.0, 10482.0, 10488.0, 10482.0, 10485.0, 10483.0, 10496.0, 10511.0, 10498.0, 10473.0, 10484.0, 10482.0, 10480.0, 10486.0, 10491.0, 10489.0, 10500.0, 10495.0, 10518.0, 10519.0, 10498.0, 10497.0, 10492.0, 10479.0, 10476.0, 10464.0, 10481.0, 10500.0, 10485.0, 10479.0, 10480.0, 10484.0, 10478.0, 10460.0, 10433.0, 10428.0, 10455.0, 10474.0, 10487.0, 10495.0, 10483.0, 10474.0, 10482.0, 10505.0, 10529.0, 10524.0, 10499.0, 10497.0, 10476.0, 10480.0, 10489.0, 10497.0, 10492.0, 10492.0, 10496.0, 10495.0],
      "WindowWidth": [23027.0, 22860.0, 22778.0, 22751.0, 22690.0, 22658.0, 22659.0, 22714.0, 22728.0, 22737.0, 22738.0, 22712.0, 22714.0, 22700.0, 22725.0, 22738.0, 22807.0, 22621.0, 22643.0, 22756.0, 22719.0, 22658.0, 22650.0, 22651.0, 22689.0, 22694.0, 22687.0, 22668.0, 22677.0, 22730.0, 22731.0, 22691.0, 22668.0, 22651.0, 22892.0, 22676.0, 22624.0, 22566.0, 22584.0, 22623.0, 22672.0, 22711.0, 22752.0, 22739.0, 22750.0, 22757.0, 22741.0, 22744.0, 22730.0, 22734.0, 22731.0, 22714.0, 22706.0, 22680.0, 22659.0, 22684.0, 22687.0, 22705.0, 22689.0, 22686.0, 22694.0, 22657.0, 22673.0, 22677.0, 22695.0, 22691.0, 22696.0, 22692.0, 22685.0, 22701.0, 22706.0, 22702.0, 22655.0, 22663.0, 22637.0, 22659.0, 22660.0, 22682.0, 22677.0, 22676.0, 22657.0, 22680.0, 22671.0, 22681.0, 22691.0, 22704.0, 22686.0, 22665.0, 22641.0, 22645.0, 22680.0, 22668.0, 22685.0, 22701.0, 22697.0, 22653.0, 22659.0, 22664.0, 22702.0, 22685.0, 22719.0, 22718.0, 22706.0, 22690.0, 22695.0, 22698.0, 22707.0, 22709.0, 22703.0, 22732.0, 22666.0, 22703.0, 22711.0, 22685.0, 22679.0, 22744.0, 22739.0, 22659.0, 22652.0, 22625.0, 22608.0, 22591.0, 22591.0, 22617.0, 22654.0, 22660.0, 22659.0, 22617.0, 22643.0, 22650.0, 22670.0, 22657.0, 22655.0, 22640.0, 22659.0, 22647.0, 22658.0, 22639.0, 22654.0, 22658.0, 22688.0, 22698.0, 22687.0, 22668.0, 22668.0, 22661.0, 22677.0, 22651.0, 22662.0, 22649.0, 22652.0, 22645.0, 22670.0, 22709.0, 22677.0, 22627.0, 22646.0, 22645.0, 22643.0, 22654.0, 22665.0, 22666.0, 22685.0, 22675.0, 22726.0, 22729.0, 22685.0, 22680.0, 22670.0, 22643.0, 22637.0, 22608.0, 22646.0, 22684.0, 22652.0, 22644.0, 22638.0, 22646.0, 22636.0, 22593.0, 22529.0, 22517.0, 22574.0, 22622.0, 22651.0, 22669.0, 22645.0, 22627.0, 22644.0, 22698.0, 22751.0, 22739.0, 22691.0, 22677.0, 22634.0, 22642.0, 22663.0, 22679.0, 22681.0, 22674.0, 22677.0, 22674.0]
    },
    "slices": {}
  }
}