{
  "AcquisitionMatrixPE": 104,
  "AcquisitionNumber": 1,
  "AcquisitionTime": "19:41:44.625000",
  "BandwidthPerPixelPhaseEncode": 17.17,
  "BaseResolution": 104,
  "BodyPartExamined": "BRAIN",
  "CoilCombinationMethod": "Sum of Squares",
  "ConsistencyInfo": "N4_VE11C_LATEST_20160120",
  "ConversionSoftware": "dcm2niix",
  "ConversionSoftwareVersion": "v1.0.20230411",
  "DerivedVendorReportedEchoSpacing": 0.000560011,
  "DeviceSerialNumber": "167006",
  "DwellTime": 2.1e-06,
  "EchoTime": 0.037,
  "EchoTrainLength": 104,
  "EffectiveEchoSpacing": 0.000560011,
  "FlipAngle": 52,
  "HeudiconvVersion": "0.5.3.post861+ge7d3c7f",
  "ImageComments": "Unaliased MB4/PE3/LB",
  "ImageOrientationPatientDICOM": [0.999844, -0.0157676, 0.00795635, 0.0176269, 0.918964, -0.393947],
  "ImageOrientationText": "Tra>Cor(-23.2)>Sag(0.1)",
  "ImageType": [
    "ORIGINAL",
    "PRIMARY",
    "M",
    "MB",
    "ND",
    "MOSAIC"
],
  "ImagingFrequency": 123.249575,
  "InPlanePhaseEncodingDirectionDICOM": "COL",
  "InstitutionAddress": "Chemin Queen-Mary 4565,Montreal,District,CA,H3W 1W5",
  "InstitutionName": "IUGM",
  "InstitutionalDepartmentName": "Department",
  "MRAcquisitionType": "2D",
  "MagneticFieldStrength": 3,
  "Manufacturer": "Siemens",
  "ManufacturersModelName": "Prisma_fit",
  "MatrixCoilMode": "SENSE",
  "Modality": "MR",
  "MultibandAccelerationFactor": 4,
  "NonlinearGradientCorrection": false,
  "PartialFourier": 1,
  "PatientPosition": "HFS",
  "PercentPhaseFOV": 100,
  "PercentSampling": 100,
  "PhaseEncodingDirection": "j",
  "PhaseEncodingSteps": 104,
  "PhaseResolution": 1,
  "PixelBandwidth": 2290,
  "ProcedureStepDescription": "localizers^retinotopy",
  "ProtocolName": "func_task-rings",
  "PulseSequenceDetails": "%CustomerSeq%\\cmrr_mbep2d_bold",
  "ReceiveCoilActiveElements": "HC1-7;NC1,2",
  "ReceiveCoilName": "HeadNeck_64",
  "ReconMatrixPE": 104,
  "RepetitionTime": 1.49,
  "SAR": 0.0690401,
  "ScanOptions": "FS",
  "ScanningSequence": "EP",
  "SequenceName": "epfid2d1_104",
  "SequenceVariant": "SK\\SS",
  "SeriesDescription": "func_task-rings",
  "SeriesNumber": 13,
  "ShimSetting": [585, -7279, -8834, 323, 28, -402, -32, 115],
  "SliceThickness": 2,
  "SliceTiming": [0, 0.785, 0.0975, 0.8825, 0.195, 0.98, 0.295, 1.0775, 0.3925, 1.175, 0.49, 1.275, 0.5875, 1.3725, 0.685, 0, 0.785, 0.0975, 0.8825, 0.195, 0.98, 0.295, 1.0775, 0.3925, 1.175, 0.49, 1.275, 0.5875, 1.3725, 0.685, 0, 0.785, 0.0975, 0.8825, 0.195, 0.98, 0.295, 1.0775, 0.3925, 1.175, 0.49, 1.275, 0.5875, 1.3725, 0.685, 0, 0.785, 0.0975, 0.8825, 0.195, 0.98, 0.295, 1.0775, 0.3925, 1.175, 0.49, 1.275, 0.5875, 1.3725, 0.685],
  "SoftwareVersions": "syngo MR E11",
  "SpacingBetweenSlices": 2,
  "StationName": "MRC35049",
  "TaskName": "rings",
  "TotalReadoutTime": 0.0576811,
  "TxRefAmp": 289.242,
  "WipMemBlock": "9f997c42-4a5a-426f-ae36-a5e5913dfc7a||Sequence: R017 ve11c/master r/75a17815+; Jun 28 2022 16:32:11 by eja",
  "dcmmeta_affine": [
    [-1.9996880292892456, 0.035253897309303284, 0.0022000179160386324, 103.10713958740234],
    [0.031535111367702484, 1.8379278182983398, -0.7880525588989258, -60.75958251953125],
    [0.015912698581814766, 0.7878949642181396, 1.8381969928741455, -64.35636901855469],
    [0.0, 0.0, 0.0, 1.0]
],
  "dcmmeta_reorient_transform": [
    [0.0, -1.0, 0.0, 103.0],
    [1.0, 0.0, 0.0, 0.0],
    [0.0, 0.0, 1.0, 0.0],
    [0.0, 0.0, 0.0, 1.0]
],
  "dcmmeta_shape": [104, 104, 60, 202],
  "dcmmeta_slice_dim": 2,
  "dcmmeta_version": 0.6,
  "global": {
    "const": {
      "AcquisitionMatrix": [104, 0, 0, 104],
      "AngioFlag": "N",
      "BitsAllocated": 16,
      "BitsStored": 16,
      "BodyPartExamined": "BRAIN",
      "Columns": 832,
      "EchoNumbers": 1,
      "EchoTime": 37.0,
      "EchoTrainLength": 104,
      "FlipAngle": 52.0,
      "HighBit": 15,
      "ImageOrientationPatient": [0.99984402817693, -0.0157675559528, 0.00795634955274, 0.01762694809755, 0.91896390795971, -0.3939474921461],
      "ImagePositionPatient": [-847.45716399647, -786.07392785801, 297.79836865951],
      "ImageType": [
        "ORIGINAL",
        "PRIMARY",
        "M",
        "MB",
        "ND",
        "MOSAIC"
],
      "ImagedNucleus": "1H",
      "ImagingFrequency": 123.249575,
      "InPlanePhaseEncodingDirection": "COL",
      "MRAcquisitionType": "2D",
      "MagneticFieldStrength": 3.0,
      "Manufacturer": "SIEMENS",
      "ManufacturerModelName": "Prisma_fit",
      "Modality": "MR",
      "NumberOfAverages": 1.0,
      "NumberOfPhaseEncodingSteps": 104,
      "PercentPhaseFieldOfView": 100.0,
      "PercentSampling": 100.0,
      "PerformedProcedureStepStartTime": "193135.840000",
      "PhotometricInterpretation": "MONOCHROME2",
      "PixelBandwidth": 2290.0,
      "PixelRepresentation": 0,
      "PixelSpacing": [2.0, 2.0],
      "ProtocolName": "func_task-rings",
      "RepetitionTime": 1490.0,
      "Rows": 832,
      "SAR": 0.06904010457967,
      "SamplesPerPixel": 1,
      "ScanOptions": "FS",
      "ScanningSequence": "EP",
      "SequenceName": "epfid2d1_104",
      "SequenceVariant": [
        "SK",
        "SS"
],
      "SeriesDescription": "func_task-rings",
      "SeriesNumber": 13,
      "SeriesTime": "194255.861000",
      "SliceLocation": -35.095549091207,
      "SliceThickness": 2.0,
      "SmallestImagePixelValue": 0,
      "SoftwareVersions": "syngo MR E11",
      "SpacingBetweenSlices": 1.9999999624185,
      "SpecificCharacterSet": "ISO_IR 100",
      "StudyID": "1",
      "StudyTime": "193135.760000",
      "TransmitCoilName": "Body",
      "VariableFlipAngleFlag": "N",
      "WindowCenterWidthExplanation": "Algo1",
      "dBdt": 0.0},
    "slices": {}
  },
  "time": {
    "samples": {
      "AcquisitionNumber": [1, 2, 3, 4, 5, 6, 7, 8, 9, 10, 11, 12, 13, 14, 15, 16, 17, 18, 19, 20, 21, 22, 23, 24, 25, 26, 27, 28, 29, 30, 31, 32, 33, 34, 35, 36, 37, 38, 39, 40, 41, 42, 43, 44, 45, 46, 47, 48, 49, 50, 51, 52, 53, 54, 55, 56, 57, 58, 59, 60, 61, 62, 63, 64, 65, 66, 67, 68, 69, 70, 71, 72, 73, 74, 75, 76, 77, 78, 79, 80, 81, 82, 83, 84, 85, 86, 87, 88, 89, 90, 91, 92, 93, 94, 95, 96, 97, 98, 99, 100, 101, 102, 103, 104, 105, 106, 107, 108, 109, 110, 111, 112, 113, 114, 115, 116, 117, 118, 119, 120, 121, 122, 123, 124, 125, 126, 127, 128, 129, 130, 131, 132, 133, 134, 135, 136, 137, 138, 139, 140, 141, 142, 143, 144, 145, 146, 147, 148, 149, 150, 151, 152, 153, 154, 155, 156, 157, 158, 159, 160, 161, 162, 163, 164, 165, 166, 167, 168, 169, 170, 171, 172, 173, 174, 175, 176, 177, 178, 179, 180, 181, 182, 183, 184, 185, 186, 187, 188, 189, 190, 191, 192, 193, 194, 195, 196, 197, 198, 199, 200, 201, 202],
      "AcquisitionTime": ["194144.625000", "194146.115000", "194147.605000", "194149.095000", "194150.585000", "194152.075000", "194153.565000", "194155.055000", "194156.545000", "194158.035000", "194159.525000", "194201.015000", "194202.505000", "194203.995000", "194205.485000", "194206.975000", "194208.465000", "194209.955000", "194211.445000", "194212.935000", "194214.425000", "194215.915000", "194217.405000", "194218.895000", "194220.385000", "194221.875000", "194223.365000", "194224.855000", "194226.345000", "194227.835000", "194229.325000", "194230.815000", "194232.305000", "194233.795000", "194235.285000", "194236.775000", "194238.265000", "194239.755000", "194241.245000", "194242.735000", "194244.225000", "194245.715000", "194247.205000", "194248.695000", "194250.185000", "194251.675000", "194253.165000", "194254.655000", "194256.145000", "194257.635000", "194259.125000", "194300.615000", "194302.105000", "194303.595000", "194305.085000", "194306.575000", "194308.065000", "194309.555000", "194311.045000", "194312.535000", "194314.025000", "194315.515000", "194317.005000", "194318.495000", "194319.985000", "194321.475000", "194322.965000", "194324.455000", "194325.945000", "194327.435000", "194328.925000", "194330.415000", "194331.905000", "194333.395000", "194334.885000", "194336.375000", "194337.865000", "194339.355000", "194340.845000", "194342.335000", "194343.825000", "194345.315000", "194346.805000", "194348.295000", "194349.785000", "194351.275000", "194352.765000", "194354.255000", "194355.745000", "194357.235000", "194358.725000", "194400.215000", "194401.705000", "194403.195000", "194404.685000", "194406.175000", "194407.665000", "194409.155000", "194410.645000", "194412.135000", "194413.625000", "194415.115000", "194416.605000", "194418.095000", "194419.585000", "194421.075000", "194422.565000", "194424.055000", "194425.545000", "194427.035000", "194428.525000", "194430.015000", "194431.505000", "194432.995000", "194434.485000", "194435.975000", "194437.465000", "194438.955000", "194440.445000", "194441.935000", "194443.425000", "194444.915000", "194446.405000", "194447.895000", "194449.385000", "194450.875000", "194452.365000", "194453.855000", "194455.345000", "194456.835000", "194458.325000", "194459.815000", "194501.305000", "194502.795000", "194504.285000", "194505.775000", "194507.265000", "194508.755000", "194510.245000", "194511.735000", "194513.225000", "194514.715000", "194516.205000", "194517.695000", "194519.185000", "194520.675000", "194522.165000", "194523.655000", "194525.145000", "194526.635000", "194528.125000", "194529.615000", "194531.105000", "194532.595000", "194534.085000", "194535.575000", "194537.065000", "194538.555000", "194540.045000", "194541.535000", "194543.025000", "194544.515000", "194546.005000", "194547.495000", "194548.985000", "194550.475000", "194551.965000", "194553.455000", "194554.945000", "194556.435000", "194557.925000", "194559.415000", "194600.905000", "194602.395000", "194603.885000", "194605.375000", "194606.865000", "194608.355000", "194609.845000", "194611.335000", "194612.825000", "194614.315000", "194615.805000", "194617.295000", "194618.785000", "194620.275000", "194621.765000", "194623.255000", "194624.745000", "194626.235000", "194627.725000", "194629.215000", "194630.705000", "194632.195000", "194633.685000", "194635.175000", "194636.665000", "194638.155000", "194639.645000", "194641.135000", "194642.625000", "194644.115000"],
      "ContentTime": ["194255.864000", "194255.868000", "194255.871000", "194255.875000", "194255.878000", "194255.881000", "194255.885000", "194255.891000", "194255.894000", "194315.825000", "194315.829000", "194315.832000", "194315.836000", "194315.839000", "194315.842000", "194315.846000", "194315.849000", "194315.852000", "194315.856000", "194315.859000", "194315.863000", "194315.866000", "194315.870000", "194315.873000", "194315.877000", "194315.880000", "194315.883000", "194315.899000", "194315.903000", "194315.906000", "194335.825000", "194335.829000", "194335.832000", "194335.836000", "194335.839000", "194335.842000", "194335.846000", "194335.849000", "194335.852000", "194335.856000", "194335.859000", "194335.863000", "194335.866000", "194335.870000", "194335.873000", "194335.887000", "194335.890000", "194335.894000", "194335.897000", "194335.900000", "194355.825000", "194355.829000", "194355.832000", "194355.836000", "194355.846000", "194355.849000", "194355.853000", "194355.856000", "194355.859000", "194355.863000", "194355.866000", "194355.870000", "194355.873000", "194355.876000", "194355.880000", "194355.883000", "194355.887000", "194355.890000", "194355.894000", "194355.897000", "194415.825000", "194415.829000", "194415.832000", "194415.836000", "194415.839000", "194415.842000", "194415.846000", "194415.855000", "194415.859000", "194415.862000", "194415.866000", "194415.870000", "194415.873000", "194415.877000", "194415.880000", "194415.884000", "194415.887000", "194415.891000", "194415.895000", "194415.898000", "194455.825000", "194455.829000", "194455.832000", "194455.836000", "194455.839000", "194455.843000", "194455.846000", "194455.850000", "194455.853000", "194455.856000", "194455.860000", "194455.863000", "194455.867000", "194455.870000", "194455.873000", "194455.877000", "194455.880000", "194455.884000", "194455.887000", "194455.891000", "194455.894000", "194455.897000", "194455.901000", "194455.904000", "194455.907000", "194455.911000", "194455.914000", "194455.918000", "194455.921000", "194535.825000", "194535.829000", "194535.832000", "194535.836000", "194535.839000", "194535.843000", "194535.846000", "194535.850000", "194535.853000", "194535.857000", "194535.860000", "194535.863000", "194535.867000", "194535.870000", "194535.874000", "194535.877000", "194535.880000", "194535.884000", "194535.887000", "194535.891000", "194535.894000", "194535.898000", "194535.901000", "194535.904000", "194535.908000", "194535.911000", "194535.915000", "194615.825000", "194615.829000", "194615.832000", "194615.836000", "194615.839000", "194615.843000", "194615.847000", "194615.851000", "194615.855000", "194615.858000", "194615.861000", "194615.865000", "194615.868000", "194615.872000", "194615.875000", "194615.879000", "194615.882000", "194615.885000", "194615.889000", "194615.892000", "194615.895000", "194615.899000", "194615.902000", "194615.906000", "194615.909000", "194615.913000", "194615.916000", "194655.825000", "194655.829000", "194655.832000", "194655.836000", "194655.839000", "194655.843000", "194655.846000", "194655.850000", "194655.853000", "194655.857000", "194655.860000", "194655.864000", "194655.867000", "194655.871000", "194655.874000", "194655.877000", "194655.881000", "194655.884000", "194655.888000", "194655.891000", "194655.894000", "194655.898000", "194655.901000", "194655.905000", "194655.908000", "194655.912000", "194658.983000", "194658.986000", "194658.990000"],
      "InstanceCreationTime": ["194255.864000", "194255.868000", "194255.871000", "194255.875000", "194255.878000", "194255.881000", "194255.885000", "194255.891000", "194255.894000", "194315.825000", "194315.829000", "194315.832000", "194315.836000", "194315.839000", "194315.842000", "194315.846000", "194315.849000", "194315.852000", "194315.856000", "194315.859000", "194315.863000", "194315.866000", "194315.870000", "194315.873000", "194315.877000", "194315.880000", "194315.883000", "194315.899000", "194315.903000", "194315.906000", "194335.825000", "194335.829000", "194335.832000", "194335.836000", "194335.839000", "194335.842000", "194335.846000", "194335.849000", "194335.852000", "194335.856000", "194335.859000", "194335.863000", "194335.866000", "194335.870000", "194335.873000", "194335.887000", "194335.890000", "194335.894000", "194335.897000", "194335.900000", "194355.825000", "194355.829000", "194355.832000", "194355.836000", "194355.846000", "194355.849000", "194355.853000", "194355.856000", "194355.859000", "194355.863000", "194355.866000", "194355.870000", "194355.873000", "194355.876000", "194355.880000", "194355.883000", "194355.887000", "194355.890000", "194355.894000", "194355.897000", "194415.825000", "194415.829000", "194415.832000", "194415.836000", "194415.839000", "194415.842000", "194415.846000", "194415.855000", "194415.859000", "194415.862000", "194415.866000", "194415.870000", "194415.873000", "194415.877000", "194415.880000", "194415.884000", "194415.887000", "194415.891000", "194415.895000", "194415.898000", "194455.825000", "194455.829000", "194455.832000", "194455.836000", "194455.839000", "194455.843000", "194455.846000", "194455.850000", "194455.853000", "194455.856000", "194455.860000", "194455.863000", "194455.867000", "194455.870000", "194455.873000", "194455.877000", "194455.880000", "194455.884000", "194455.887000", "194455.891000", "194455.894000", "194455.897000", "194455.901000", "194455.904000", "194455.907000", "194455.911000", "194455.914000", "194455.918000", "194455.921000", "194535.825000", "194535.829000", "194535.832000", "194535.836000", "194535.839000", "194535.843000", "194535.846000", "194535.850000", "194535.853000", "194535.857000", "194535.860000", "194535.863000", "194535.867000", "194535.870000", "194535.874000", "194535.877000", "194535.880000", "194535.884000", "194535.887000", "194535.891000", "194535.894000", "194535.898000", "194535.901000", "194535.904000", "194535.908000", "194535.911000", "194535.915000", "194615.825000", "194615.829000", "194615.832000", "194615.836000", "194615.839000", "194615.843000", "194615.847000", "194615.851000", "194615.855000", "194615.858000", "194615.861000", "194615.865000", "194615.868000", "194615.872000", "194615.875000", "194615.879000", "194615.882000", "194615.885000", "194615.889000", "194615.892000", "194615.895000", "194615.899000", "194615.902000", "194615.906000", "194615.909000", "194615.913000", "194615.916000", "194655.825000", "194655.829000", "194655.832000", "194655.836000", "194655.839000", "194655.843000", "194655.846000", "194655.850000", "194655.853000", "194655.857000", "194655.860000", "194655.864000", "194655.867000", "194655.871000", "194655.874000", "194655.877000", "194655.881000", "194655.884000", "194655.888000", "194655.891000", "194655.894000", "194655.898000", "194655.901000", "194655.905000", "194655.908000", "194655.912000", "194658.983000", "194658.986000", "194658.990000"],
      "InstanceNumber": [1, 2, 3, 4, 5, 6, 7, 8, 9, 10, 11, 12, 13, 14, 15, 16, 17, 18, 19, 20, 21, 22, 23, 24, 25, 26, 27, 28, 29, 30, 31, 32, 33, 34, 35, 36, 37, 38, 39, 40, 41, 42, 43, 44, 45, 46, 47, 48, 49, 50, 51, 52, 53, 54, 55, 56, 57, 58, 59, 60, 61, 62, 63, 64, 65, 66, 67, 68, 69, 70, 71, 72, 73, 74, 75, 76, 77, 78, 79, 80, 81, 82, 83, 84, 85, 86, 87, 88, 89, 90, 91, 92, 93, 94, 95, 96, 97, 98, 99, 100, 101, 102, 103, 104, 105, 106, 107, 108, 109, 110, 111, 112, 113, 114, 115, 116, 117, 118, 119, 120, 121, 122, 123, 124, 125, 126, 127, 128, 129, 130, 131, 132, 133, 134, 135, 136, 137, 138, 139, 140, 141, 142, 143, 144, 145, 146, 147, 148, 149, 150, 151, 152, 153, 154, 155, 156, 157, 158, 159, 160, 161, 162, 163, 164, 165, 166, 167, 168, 169, 170, 171, 172, 173, 174, 175, 176, 177, 178, 179, 180, 181, 182, 183, 184, 185, 186, 187, 188, 189, 190, 191, 192, 193, 194, 195, 196, 197, 198, 199, 200, 201, 202],
      "LargestImagePixelValue": [58412, 57187, 56346, 56692, 55131, 55424, 54946, 55077, 54607, 54507, 54124, 54832, 54227, 54604, 54490, 54712, 54426, 55314, 54940, 55219, 55101, 55043, 54737, 55491, 54685, 55391, 54522, 55424, 54774, 54978, 54145, 54689, 54533, 55017, 54510, 54529, 54720, 54110, 54650, 54498, 54933, 54256, 54993, 54855, 55095, 54525, 54796, 55128, 55011, 55250, 56212, 54797, 55208, 55399, 55033, 54963, 54639, 54989, 54785, 54504, 54851, 54587, 55277, 54570, 55236, 56014, 55708, 55684, 55615, 55289, 55571, 54952, 54658, 55046, 55569, 55754, 55451, 55474, 54884, 55379, 55055, 54818, 55035, 54994, 55101, 54377, 55562, 55151, 54775, 55539, 55199, 55746, 54782, 55350, 54850, 55011, 55541, 55395, 55365, 55490, 55785, 55065, 56008, 55951, 55651, 55527, 55290, 55212, 55423, 55365, 55408, 55630, 55407, 55619, 55593, 55275, 56012, 55520, 56016, 55631, 55670, 55820, 56033, 55829, 56119, 55621, 55695, 56565, 55600, 56207, 55747, 55627, 55526, 56045, 55966, 55957, 54745, 56625, 56748, 57154, 56730, 55878, 55892, 55661, 55342, 55338, 55862, 56439, 56354, 56826, 56467, 56307, 55978, 55936, 55825, 56367, 55685, 56709, 56875, 56197, 56642, 56758, 56803, 56496, 55654, 56514, 56264, 56042, 56407, 55900, 55866, 56044, 56495, 56201, 56668, 56007, 56335, 55907, 56314, 55911, 56288, 56658, 56070, 55938, 56492, 56494, 56378, 56663, 56358, 56898, 56586, 56975, 55950, 56593, 55983, 56681, 56218, 56830, 56377, 56415, 56004, 56473],
      "WindowCenter": [10587.0, 10530.0, 10528.0, 10520.0, 10507.0, 10501.0, 10490.0, 10488.0, 10474.0, 10481.0, 10483.0, 10488.0, 10484.0, 10480.0, 10472.0, 10469.0, 10479.0, 10497.0, 10501.0, 10508.0, 10504.0, 10513.0, 10498.0, 10486.0, 10470.0, 10469.0, 10462.0, 10475.0, 10489.0, 10497.0, 10478.0, 10480.0, 10482.0, 10494.0, 10491.0, 10491.0, 10500.0, 10495.0, 10493.0, 10491.0, 10489.0, 10491.0, 10486.0, 10480.0, 10484.0, 10472.0, 10478.0, 10480.0, 10485.0, 10501.0, 10483.0, 10481.0, 10491.0, 10486.0, 10480.0, 10469.0, 10465.0, 10482.0, 10487.0, 10489.0, 10480.0, 10473.0, 10483.0, 10485.0, 10507.0, 10511.0, 10513.0, 10486.0, 10491.0, 10485.0, 10491.0, 10485.0, 10489.0, 10490.0, 10495.0, 10491.0, 10475.0, 10473.0, 10471.0, 10485.0, 10490.0, 10490.0, 10493.0, 10491.0, 10486.0, 10494.0, 10506.0, 10501.0, 10498.0, 10503.0, 10496.0, 10502.0, 10492.0, 10488.0, 10483.0, 10489.0, 10503.0, 10504.0, 10506.0, 10499.0, 10494.0, 10488.0, 10492.0, 10506.0, 10501.0, 10501.0, 10502.0, 10502.0, 10505.0, 10510.0, 10499.0, 10500.0, 10495.0, 10499.0, 10494.0, 10479.0, 10498.0, 10509.0, 10525.0, 10527.0, 10514.0, 10504.0, 10501.0, 10502.0, 10503.0, 10503.0, 10501.0, 10514.0, 10516.0, 10517.0, 10503.0, 10496.0, 10502.0, 10516.0, 10515.0, 10503.0, 10489.0, 10513.0, 10520.0, 10497.0, 10469.0, 10469.0, 10489.0, 10493.0, 10477.0, 10466.0, 10468.0, 10464.0, 10469.0, 10484.0, 10516.0, 10508.0, 10502.0, 10501.0, 10494.0, 10491.0, 10490.0, 10514.0, 10531.0, 10519.0, 10518.0, 10501.0, 10497.0, 10492.0, 10483.0, 10513.0, 10523.0, 10503.0, 10492.0, 10477.0, 10476.0, 10488.0, 10512.0, 10517.0, 10512.0, 10504.0, 10515.0, 10526.0, 10534.0, 10536.0, 10520.0, 10517.0, 10514.0, 10511.0, 10525.0, 10532.0, 10521.0, 10515.0, 10502.0, 10513.0, 10516.0, 10521.0, 10509.0, 10508.0, 10495.0, 10498.0, 10498.0, 10512.0, 10505.0, 10501.0, 10506.0, 10508.0],
      "WindowWidth": [22995.0, 22820.0, 22791.0, 22752.0, 22715.0, 22698.0, 22670.0, 22661.0, 22632.0, 22645.0, 22653.0, 22661.0, 22653.0, 22645.0, 22625.0, 22618.0, 22642.0, 22678.0, 22688.0, 22700.0, 22695.0, 22716.0, 22682.0, 22651.0, 22615.0, 22611.0, 22597.0, 22622.0, 22656.0, 22675.0, 22637.0, 22638.0, 22643.0, 22668.0, 22667.0, 22667.0, 22688.0, 22679.0, 22673.0, 22669.0, 22664.0, 22670.0, 22655.0, 22636.0, 22644.0, 22620.0, 22635.0, 22638.0, 22648.0, 22685.0, 22638.0, 22636.0, 22657.0, 22648.0, 22635.0, 22612.0, 22604.0, 22637.0, 22655.0, 22661.0, 22641.0, 22623.0, 22644.0, 22650.0, 22697.0, 22707.0, 22713.0, 22651.0, 22657.0, 22644.0, 22657.0, 22644.0, 22653.0, 22657.0, 22665.0, 22662.0, 22626.0, 22622.0, 22618.0, 22647.0, 22660.0, 22662.0, 22669.0, 22664.0, 22656.0, 22674.0, 22699.0, 22688.0, 22678.0, 22687.0, 22675.0, 22686.0, 22669.0, 22658.0, 22646.0, 22662.0, 22689.0, 22693.0, 22699.0, 22681.0, 22666.0, 22656.0, 22662.0, 22693.0, 22682.0, 22680.0, 22686.0, 22685.0, 22694.0, 22706.0, 22683.0, 22681.0, 22670.0, 22676.0, 22668.0, 22635.0, 22673.0, 22699.0, 22735.0, 22741.0, 22714.0, 22689.0, 22679.0, 22685.0, 22688.0, 22687.0, 22682.0, 22709.0, 22714.0, 22718.0, 22686.0, 22671.0, 22684.0, 22714.0, 22727.0, 22686.0, 22657.0, 22705.0, 22720.0, 22672.0, 22603.0, 22601.0, 22650.0, 22661.0, 22627.0, 22602.0, 22603.0, 22595.0, 22603.0, 22632.0, 22708.0, 22692.0, 22679.0, 22679.0, 22664.0, 22654.0, 22651.0, 22708.0, 22746.0, 22725.0, 22718.0, 22681.0, 22667.0, 22669.0, 22635.0, 22705.0, 22728.0, 22686.0, 22657.0, 22626.0, 22625.0, 22652.0, 22704.0, 22718.0, 22715.0, 22696.0, 22715.0, 22739.0, 22757.0, 22764.0, 22727.0, 22719.0, 22732.0, 22708.0, 22737.0, 22750.0, 22725.0, 22709.0, 22682.0, 22707.0, 22713.0, 22724.0, 22699.0, 22695.0, 22669.0, 22671.0, 22669.0, 22703.0, 22687.0, 22679.0, 22690.0, 22695.0]
    },
    "slices": {}
  }
}