{
  "AcquisitionMatrixPE": 104,
  "AcquisitionNumber": 1,
  "AcquisitionTime": "11:35:46.542500",
  "BandwidthPerPixelPhaseEncode": 17.17,
  "BaseResolution": 104,
  "BodyPartExamined": "BRAIN",
  "CoilString": "HC1-7;NC1_2",
  "ConsistencyInfo": "N4_VE11C_LATEST_20160120",
  "ConversionSoftware": "dcm2niix",
  "ConversionSoftwareVersion": "v1.0.20190902",
  "DerivedVendorReportedEchoSpacing": 0.000560011,
  "DeviceSerialNumber": "167006",
  "DwellTime": 2.1e-06,
  "EchoTime": 0.037,
  "EchoTrainLength": 104,
  "EffectiveEchoSpacing": 0.000560011,
  "FlipAngle": 52,
  "ImageComments": "Unaliased_MB4_PE3_LB",
  "ImageOrientationPatientDICOM": [0.999483, 0.0138387, 0.0290219, 0.00331449, 0.853479, -0.521117],
  "ImageType": [
    "ORIGINAL",
    "PRIMARY",
    "P",
    "MB",
    "ND",
    "MOSAIC"
],
  "ImagingFrequency": 123.259,
  "InPlanePhaseEncodingDirectionDICOM": "COL",
  "InstitutionAddress": "Chemin_Queen-Mary_4565_Montreal_District_CA_H3W_1W5",
  "InstitutionName": "IUGM",
  "InstitutionalDepartmentName": "Department",
  "MRAcquisitionType": "2D",
  "MagneticFieldStrength": 3,
  "Manufacturer": "Siemens",
  "ManufacturersModelName": "Prisma_fit",
  "Modality": "MR",
  "MultibandAccelerationFactor": 4,
  "PartialFourier": 1,
  "PatientPosition": "HFS",
  "PercentPhaseFOV": 100,
  "PhaseEncodingDirection": "j",
  "PhaseEncodingSteps": 104,
  "PhaseResolution": 1,
  "PixelBandwidth": 2290,
  "ProcedureStepDescription": "localizers_retinotopy",
  "ProtocolName": "func_task-wedges",
  "PulseSequenceDetails": "%CustomerSeq%_cmrr_mbep2d_bold",
  "ReceiveCoilActiveElements": "HC1-7;NC1,2",
  "ReceiveCoilName": "HeadNeck_64",
  "ReconMatrixPE": 104,
  "RepetitionTime": 1.49,
  "SAR": 0.0557401,
  "ScanOptions": "FS",
  "ScanningSequence": "EP",
  "SequenceName": "epfid2d1_104",
  "SequenceVariant": "SK_SS",
  "SeriesDescription": "func_task-wedges",
  "SeriesNumber": 11,
  "ShimSetting": [617, -7174, -8889, 254, -3, -219, 20, 1],
  "SliceThickness": 2,
  "SliceTiming": [0, 0.7825, 0.0975, 0.88, 0.195, 0.98, 0.2925, 1.0775, 0.39, 1.175, 0.49, 1.2725, 0.5875, 1.37, 0.685, 0, 0.7825, 0.0975, 0.88, 0.195, 0.98, 0.2925, 1.0775, 0.39, 1.175, 0.49, 1.2725, 0.5875, 1.37, 0.685, 0, 0.7825, 0.0975, 0.88, 0.195, 0.98, 0.2925, 1.0775, 0.39, 1.175, 0.49, 1.2725, 0.5875, 1.37, 0.685, 0, 0.7825, 0.0975, 0.88, 0.195, 0.98, 0.2925, 1.0775, 0.39, 1.175, 0.49, 1.2725, 0.5875, 1.37, 0.685],
  "SoftwareVersions": "syngo_MR_E11",
  "SpacingBetweenSlices": 2,
  "StationName": "MRC35049",
  "TaskName": "wedges",
  "TotalReadoutTime": 0.0576811,
  "TxRefAmp": 287.938,
  "WipMemBlock": "221ae2a0-25bc-4ed0-ad68-fd1db5ed5ad7||Sequence: R016 ve11c/master r/e634e98; Dec 19 2017 11:00:25 by eja",
  "dcmmeta_affine": [
    [-1.9989659786224365, 0.006628972012549639, 0.06396225094795227, 105.57747650146484],
    [-0.027677346020936966, 1.7069578170776367, -1.0418871641159058, -48.740665435791016],
    [0.05804375559091568, 1.0422335863113403, 1.7059836387634277, -108.4144515991211],
    [0.0, 0.0, 0.0, 1.0]
],
  "dcmmeta_reorient_transform": [
    [0.0, -1.0, 0.0, 103.0],
    [1.0, 0.0, 0.0, 0.0],
    [0.0, 0.0, 1.0, 0.0],
    [0.0, 0.0, 0.0, 1.0]
],
  "dcmmeta_shape": [104, 104, 60, 202],
  "dcmmeta_slice_dim": 2,
  "dcmmeta_version": 0.6,
  "global": {
    "const": {
      "AcquisitionMatrix": [104, 0, 0, 104],
      "AngioFlag": "N",
      "BitsAllocated": 16,
      "BitsStored": 16,
      "BodyPartExamined": "BRAIN",
      "Columns": 832,
      "EchoNumbers": 1,
      "EchoTime": 37.0,
      "EchoTrainLength": 104,
      "FlipAngle": 52.0,
      "HighBit": 15,
      "ImageOrientationPatient": [0.9994829772322, 0.01383867313621, 0.02902187707373, 0.00331448607435, 0.85347892455882, -0.5211168194522],
      "ImagePositionPatient": [-836.29681298694, -758.48320313529, 357.18073207964],
      "ImageType": [
        "ORIGINAL",
        "PRIMARY",
        "P",
        "MB",
        "ND",
        "MOSAIC"
],
      "ImagedNucleus": "1H",
      "ImagingFrequency": 123.258955,
      "InPlanePhaseEncodingDirection": "COL",
      "LargestImagePixelValue": 4095,
      "MRAcquisitionType": "2D",
      "MagneticFieldStrength": 3.0,
      "Manufacturer": "SIEMENS",
      "ManufacturerModelName": "Prisma_fit",
      "Modality": "MR",
      "NumberOfAverages": 1.0,
      "NumberOfPhaseEncodingSteps": 104,
      "PercentPhaseFieldOfView": 100.0,
      "PercentSampling": 100.0,
      "PerformedProcedureStepStartTime": "113247.737000",
      "PhotometricInterpretation": "MONOCHROME2",
      "PixelBandwidth": 2290.0,
      "PixelRepresentation": 0,
      "PixelSpacing": [2.0, 2.0],
      "ProtocolName": "func_task-wedges",
      "RepetitionTime": 1490.0,
      "RescaleIntercept": -4096.0,
      "RescaleSlope": 2.0,
      "RescaleType": "US",
      "Rows": 832,
      "SAR": 0.05574006227752,
      "SamplesPerPixel": 1,
      "ScanOptions": "FS",
      "ScanningSequence": "EP",
      "SequenceName": "epfid2d1_104",
      "SequenceVariant": [
        "SK",
        "SS"
],
      "SeriesDescription": "func_task-wedges",
      "SeriesNumber": 11,
      "SeriesTime": "113702.492000",
      "SliceLocation": -63.709012331783,
      "SliceThickness": 2.0,
      "SmallestImagePixelValue": 0,
      "SoftwareVersions": "syngo MR E11",
      "SpacingBetweenSlices": 2.0000000424503,
      "SpecificCharacterSet": "ISO_IR 100",
      "StudyID": "1",
      "StudyTime": "113247.652000",
      "TransmitCoilName": "Body",
      "VariableFlipAngleFlag": "N",
      "WindowCenterWidthExplanation": "Algo1",
      "dBdt": 0.0},
    "slices": {}
  },
  "time": {
    "samples": {
      "AcquisitionNumber": [1, 2, 3, 4, 5, 6, 7, 8, 9, 10, 11, 12, 13, 14, 15, 16, 17, 18, 19, 20, 21, 22, 23, 24, 25, 26, 27, 28, 29, 30, 31, 32, 33, 34, 35, 36, 37, 38, 39, 40, 41, 42, 43, 44, 45, 46, 47, 48, 49, 50, 51, 52, 53, 54, 55, 56, 57, 58, 59, 60, 61, 62, 63, 64, 65, 66, 67, 68, 69, 70, 71, 72, 73, 74, 75, 76, 77, 78, 79, 80, 81, 82, 83, 84, 85, 86, 87, 88, 89, 90, 91, 92, 93, 94, 95, 96, 97, 98, 99, 100, 101, 102, 103, 104, 105, 106, 107, 108, 109, 110, 111, 112, 113, 114, 115, 116, 117, 118, 119, 120, 121, 122, 123, 124, 125, 126, 127, 128, 129, 130, 131, 132, 133, 134, 135, 136, 137, 138, 139, 140, 141, 142, 143, 144, 145, 146, 147, 148, 149, 150, 151, 152, 153, 154, 155, 156, 157, 158, 159, 160, 161, 162, 163, 164, 165, 166, 167, 168, 169, 170, 171, 172, 173, 174, 175, 176, 177, 178, 179, 180, 181, 182, 183, 184, 185, 186, 187, 188, 189, 190, 191, 192, 193, 194, 195, 196, 197, 198, 199, 200, 201, 202],
      "AcquisitionTime": ["113546.542500", "113548.032500", "113549.522500", "113551.012500", "113552.502500", "113553.992500", "113555.482500", "113556.972500", "113558.462500", "113559.952500", "113601.442500", "113602.932500", "113604.422500", "113605.912500", "113607.402500", "113608.892500", "113610.382500", "113611.872500", "113613.362500", "113614.852500", "113616.342500", "113617.832500", "113619.322500", "113620.812500", "113622.302500", "113623.792500", "113625.282500", "113626.772500", "113628.262500", "113629.752500", "113631.242500", "113632.732500", "113634.222500", "113635.712500", "113637.202500", "113638.692500", "113640.182500", "113641.672500", "113643.162500", "113644.652500", "113646.142500", "113647.632500", "113649.122500", "113650.612500", "113652.102500", "113653.592500", "113655.082500", "113656.572500", "113658.062500", "113659.552500", "113701.042500", "113702.532500", "113704.022500", "113705.512500", "113707.002500", "113708.492500", "113709.982500", "113711.472500", "113712.962500", "113714.452500", "113715.942500", "113717.432500", "113718.922500", "113720.412500", "113721.902500", "113723.392500", "113724.882500", "113726.372500", "113727.862500", "113729.352500", "113730.842500", "113732.332500", "113733.822500", "113735.312500", "113736.802500", "113738.292500", "113739.782500", "113741.272500", "113742.762500", "113744.252500", "113745.742500", "113747.232500", "113748.722500", "113750.212500", "113751.702500", "113753.192500", "113754.682500", "113756.172500", "113757.662500", "113759.152500", "113800.642500", "113802.132500", "113803.622500", "113805.112500", "113806.602500", "113808.092500", "113809.582500", "113811.072500", "113812.562500", "113814.052500", "113815.542500", "113817.032500", "113818.522500", "113820.012500", "113821.502500", "113822.992500", "113824.482500", "113825.972500", "113827.462500", "113828.952500", "113830.442500", "113831.932500", "113833.422500", "113834.912500", "113836.402500", "113837.892500", "113839.382500", "113840.872500", "113842.362500", "113843.852500", "113845.342500", "113846.832500", "113848.322500", "113849.812500", "113851.302500", "113852.792500", "113854.282500", "113855.772500", "113857.262500", "113858.752500", "113900.242500", "113901.732500", "113903.222500", "113904.712500", "113906.202500", "113907.692500", "113909.182500", "113910.672500", "113912.162500", "113913.652500", "113915.142500", "113916.632500", "113918.122500", "113919.612500", "113921.102500", "113922.592500", "113924.082500", "113925.572500", "113927.062500", "113928.552500", "113930.042500", "113931.532500", "113933.022500", "113934.512500", "113936.002500", "113937.492500", "113938.982500", "113940.472500", "113941.962500", "113943.452500", "113944.942500", "113946.432500", "113947.922500", "113949.412500", "113950.902500", "113952.392500", "113953.882500", "113955.372500", "113956.862500", "113958.352500", "113959.842500", "114001.332500", "114002.822500", "114004.312500", "114005.802500", "114007.292500", "114008.782500", "114010.272500", "114011.762500", "114013.252500", "114014.742500", "114016.232500", "114017.722500", "114019.212500", "114020.702500", "114022.192500", "114023.682500", "114025.172500", "114026.662500", "114028.152500", "114029.642500", "114031.132500", "114032.622500", "114034.112500", "114035.602500", "114037.092500", "114038.582500", "114040.072500", "114041.562500", "114043.052500", "114044.542500", "114046.032500"],
      "ContentTime": ["113702.494000", "113702.497000", "113702.499000", "113702.501000", "113702.504000", "113702.506000", "113702.509000", "113702.511000", "113702.514000", "113702.516000", "113702.519000", "113702.521000", "113702.524000", "113702.526000", "113702.529000", "113702.531000", "113702.534000", "113702.536000", "113702.539000", "113702.541000", "113722.474000", "113722.477000", "113722.479000", "113722.481000", "113722.484000", "113722.486000", "113722.489000", "113722.491000", "113722.494000", "113722.496000", "113722.499000", "113722.501000", "113722.504000", "113722.506000", "113722.509000", "113722.511000", "113722.513000", "113722.516000", "113722.518000", "113722.521000", "113742.462000", "113742.464000", "113742.467000", "113742.469000", "113742.481000", "113742.483000", "113742.486000", "113742.488000", "113742.491000", "113742.493000", "113742.496000", "113742.498000", "113742.501000", "113742.503000", "113742.506000", "113742.508000", "113742.511000", "113742.513000", "113742.516000", "113742.518000", "113802.467000", "113802.470000", "113802.473000", "113802.475000", "113802.478000", "113802.480000", "113802.482000", "113802.485000", "113802.487000", "113802.490000", "113802.492000", "113802.495000", "113802.497000", "113802.500000", "113802.502000", "113802.505000", "113802.507000", "113802.510000", "113802.512000", "113802.515000", "113822.472000", "113822.475000", "113822.478000", "113822.480000", "113822.483000", "113822.485000", "113822.488000", "113822.490000", "113822.492000", "113822.495000", "113822.497000", "113822.500000", "113822.502000", "113822.505000", "113822.507000", "113822.510000", "113822.512000", "113822.515000", "113822.517000", "113822.520000", "113902.516000", "113902.519000", "113902.522000", "113902.524000", "113902.527000", "113902.529000", "113902.532000", "113902.534000", "113902.537000", "113902.539000", "113902.542000", "113902.544000", "113902.546000", "113902.549000", "113902.551000", "113902.554000", "113902.556000", "113902.559000", "113902.561000", "113902.564000", "113902.566000", "113902.569000", "113902.572000", "113902.574000", "113902.576000", "113902.589000", "113902.592000", "113902.594000", "113902.597000", "113902.599000", "113942.511000", "113942.514000", "113942.517000", "113942.519000", "113942.522000", "113942.524000", "113942.526000", "113942.529000", "113942.531000", "113942.534000", "113942.536000", "113942.539000", "113942.541000", "113942.544000", "113942.546000", "113942.549000", "113942.551000", "113942.554000", "113942.556000", "113942.559000", "113942.561000", "113942.564000", "113942.566000", "113942.569000", "113942.571000", "113942.574000", "113942.576000", "114022.514000", "114022.517000", "114022.520000", "114022.522000", "114022.534000", "114022.536000", "114022.539000", "114022.541000", "114022.544000", "114022.546000", "114022.549000", "114022.551000", "114022.554000", "114022.556000", "114022.559000", "114022.561000", "114022.564000", "114022.566000", "114022.569000", "114022.571000", "114022.574000", "114022.576000", "114022.579000", "114022.581000", "114022.584000", "114022.586000", "114022.589000", "114048.480000", "114048.483000", "114048.485000", "114048.488000", "114048.490000", "114048.493000", "114048.496000", "114048.498000", "114048.501000", "114048.504000", "114048.506000", "114048.509000", "114048.512000", "114048.514000", "114048.517000", "114048.520000", "114048.523000", "114048.525000"],
      "InstanceCreationTime": ["113702.494000", "113702.497000", "113702.499000", "113702.501000", "113702.504000", "113702.506000", "113702.509000", "113702.511000", "113702.514000", "113702.516000", "113702.519000", "113702.521000", "113702.524000", "113702.526000", "113702.529000", "113702.531000", "113702.534000", "113702.536000", "113702.539000", "113702.541000", "113722.474000", "113722.477000", "113722.479000", "113722.481000", "113722.484000", "113722.486000", "113722.489000", "113722.491000", "113722.494000", "113722.496000", "113722.499000", "113722.501000", "113722.504000", "113722.506000", "113722.509000", "113722.511000", "113722.513000", "113722.516000", "113722.518000", "113722.521000", "113742.462000", "113742.464000", "113742.467000", "113742.469000", "113742.481000", "113742.483000", "113742.486000", "113742.488000", "113742.491000", "113742.493000", "113742.496000", "113742.498000", "113742.501000", "113742.503000", "113742.506000", "113742.508000", "113742.511000", "113742.513000", "113742.516000", "113742.518000", "113802.467000", "113802.470000", "113802.473000", "113802.475000", "113802.478000", "113802.480000", "113802.482000", "113802.485000", "113802.487000", "113802.490000", "113802.492000", "113802.495000", "113802.497000", "113802.500000", "113802.502000", "113802.505000", "113802.507000", "113802.510000", "113802.512000", "113802.515000", "113822.472000", "113822.475000", "113822.478000", "113822.480000", "113822.483000", "113822.485000", "113822.488000", "113822.490000", "113822.492000", "113822.495000", "113822.497000", "113822.500000", "113822.502000", "113822.505000", "113822.507000", "113822.510000", "113822.512000", "113822.515000", "113822.517000", "113822.520000", "113902.516000", "113902.519000", "113902.522000", "113902.524000", "113902.527000", "113902.529000", "113902.532000", "113902.534000", "113902.537000", "113902.539000", "113902.542000", "113902.544000", "113902.546000", "113902.549000", "113902.551000", "113902.554000", "113902.556000", "113902.559000", "113902.561000", "113902.564000", "113902.566000", "113902.569000", "113902.572000", "113902.574000", "113902.576000", "113902.589000", "113902.592000", "113902.594000", "113902.597000", "113902.599000", "113942.511000", "113942.514000", "113942.517000", "113942.519000", "113942.522000", "113942.524000", "113942.526000", "113942.529000", "113942.531000", "113942.534000", "113942.536000", "113942.539000", "113942.541000", "113942.544000", "113942.546000", "113942.549000", "113942.551000", "113942.554000", "113942.556000", "113942.559000", "113942.561000", "113942.564000", "113942.566000", "113942.569000", "113942.571000", "113942.574000", "113942.576000", "114022.514000", "114022.517000", "114022.520000", "114022.522000", "114022.534000", "114022.536000", "114022.539000", "114022.541000", "114022.544000", "114022.546000", "114022.549000", "114022.551000", "114022.554000", "114022.556000", "114022.559000", "114022.561000", "114022.564000", "114022.566000", "114022.569000", "114022.571000", "114022.574000", "114022.576000", "114022.579000", "114022.581000", "114022.584000", "114022.586000", "114022.589000", "114048.480000", "114048.483000", "114048.485000", "114048.488000", "114048.490000", "114048.493000", "114048.496000", "114048.498000", "114048.501000", "114048.504000", "114048.506000", "114048.509000", "114048.512000", "114048.514000", "114048.517000", "114048.520000", "114048.523000", "114048.525000"],
      "InstanceNumber": [1, 2, 3, 4, 5, 6, 7, 8, 9, 10, 11, 12, 13, 14, 15, 16, 17, 18, 19, 20, 21, 22, 23, 24, 25, 26, 27, 28, 29, 30, 31, 32, 33, 34, 35, 36, 37, 38, 39, 40, 41, 42, 43, 44, 45, 46, 47, 48, 49, 50, 51, 52, 53, 54, 55, 56, 57, 58, 59, 60, 61, 62, 63, 64, 65, 66, 67, 68, 69, 70, 71, 72, 73, 74, 75, 76, 77, 78, 79, 80, 81, 82, 83, 84, 85, 86, 87, 88, 89, 90, 91, 92, 93, 94, 95, 96, 97, 98, 99, 100, 101, 102, 103, 104, 105, 106, 107, 108, 109, 110, 111, 112, 113, 114, 115, 116, 117, 118, 119, 120, 121, 122, 123, 124, 125, 126, 127, 128, 129, 130, 131, 132, 133, 134, 135, 136, 137, 138, 139, 140, 141, 142, 143, 144, 145, 146, 147, 148, 149, 150, 151, 152, 153, 154, 155, 156, 157, 158, 159, 160, 161, 162, 163, 164, 165, 166, 167, 168, 169, 170, 171, 172, 173, 174, 175, 176, 177, 178, 179, 180, 181, 182, 183, 184, 185, 186, 187, 188, 189, 190, 191, 192, 193, 194, 195, 196, 197, 198, 199, 200, 201, 202],
      "WindowCenter": [4880.0, 4880.0, 4878.0, 4876.0, 4880.0, 4878.0, 4882.0, 4888.0, 4876.0, 4878.0, 4860.0, 4862.0, 4860.0, 4880.0, 4878.0, 4878.0, 4872.0, 4858.0, 4864.0, 4876.0, 4878.0, 4858.0, 4858.0, 4882.0, 4878.0, 4880.0, 4880.0, 4868.0, 4866.0, 4898.0, 4882.0, 4880.0, 4880.0, 4876.0, 4878.0, 4882.0, 4880.0, 4880.0, 4876.0, 4878.0, 4880.0, 4880.0, 4878.0, 4874.0, 4880.0, 4904.0, 4876.0, 4880.0, 4880.0, 4888.0, 4886.0, 4880.0, 4856.0, 4864.0, 4882.0, 4882.0, 4880.0, 4882.0, 4872.0, 4894.0, 4872.0, 4882.0, 4896.0, 4886.0, 4902.0, 4882.0, 4870.0, 4870.0, 4862.0, 4882.0, 4880.0, 4864.0, 4786.0, 4814.0, 4876.0, 4884.0, 4862.0, 4840.0, 4868.0, 4878.0, 4882.0, 4870.0, 4864.0, 4858.0, 4814.0, 4850.0, 4902.0, 4874.0, 4832.0, 4836.0, 4874.0, 4882.0, 4896.0, 4816.0, 4816.0, 4862.0, 4874.0, 4882.0, 4870.0, 4884.0, 4882.0, 4884.0, 4884.0, 4880.0, 4878.0, 4882.0, 4878.0, 4878.0, 4864.0, 4880.0, 4874.0, 4886.0, 4862.0, 4870.0, 4860.0, 4880.0, 4900.0, 4880.0, 4884.0, 4874.0, 4880.0, 4878.0, 4900.0, 4894.0, 4886.0, 4888.0, 4888.0, 4884.0, 4882.0, 4880.0, 4876.0, 4860.0, 4816.0, 4852.0, 4878.0, 4892.0, 4868.0, 4866.0, 4866.0, 4880.0, 4878.0, 4858.0, 4784.0, 4850.0, 4876.0, 4858.0, 4868.0, 4868.0, 4868.0, 4880.0, 4878.0, 4872.0, 4860.0, 4784.0, 4812.0, 4870.0, 4890.0, 4842.0, 4834.0, 4862.0, 4862.0, 4878.0, 4868.0, 4824.0, 4756.0, 4824.0, 4894.0, 4890.0, 4866.0, 4836.0, 4842.0, 4868.0, 4880.0, 4872.0, 4884.0, 4858.0, 4826.0, 4884.0, 4880.0, 4888.0, 4870.0, 4868.0, 4882.0, 4896.0, 4892.0, 4872.0, 4876.0, 4880.0, 4878.0, 4882.0, 4892.0, 4888.0, 4880.0, 4880.0, 4888.0, 4866.0, 4858.0, 4878.0, 4876.0, 4874.0, 4870.0, 4870.0],
      "WindowWidth": [18652.0, 18644.0, 18638.0, 18634.0, 18642.0, 18668.0, 18720.0, 18728.0, 18674.0, 18630.0, 18600.0, 18606.0, 18598.0, 18630.0, 18644.0, 18668.0, 18674.0, 18698.0, 18700.0, 18664.0, 18630.0, 18602.0, 18596.0, 18630.0, 18636.0, 18640.0, 18656.0, 18684.0, 18676.0, 18700.0, 18654.0, 18632.0, 18628.0, 18632.0, 18652.0, 18650.0, 18648.0, 18652.0, 18674.0, 18660.0, 18654.0, 18652.0, 18638.0, 18626.0, 18638.0, 18696.0, 18668.0, 18654.0, 18658.0, 18718.0, 18720.0, 18644.0, 18590.0, 18598.0, 18624.0, 18628.0, 18642.0, 18662.0, 18678.0, 18706.0, 18668.0, 18664.0, 18712.0, 18720.0, 18686.0, 18626.0, 18612.0, 18612.0, 18598.0, 18634.0, 18658.0, 18692.0, 18632.0, 18670.0, 18674.0, 18634.0, 18616.0, 18586.0, 18620.0, 18624.0, 18658.0, 18674.0, 18690.0, 18706.0, 18668.0, 18706.0, 18692.0, 18620.0, 18586.0, 18580.0, 18618.0, 18624.0, 18706.0, 18666.0, 18666.0, 18704.0, 18670.0, 18626.0, 18616.0, 18632.0, 18642.0, 18636.0, 18640.0, 18644.0, 18650.0, 18654.0, 18666.0, 18674.0, 18696.0, 18734.0, 18666.0, 18632.0, 18610.0, 18616.0, 18600.0, 18626.0, 18706.0, 18736.0, 18728.0, 18662.0, 18642.0, 18636.0, 18710.0, 18704.0, 18642.0, 18628.0, 18632.0, 18628.0, 18630.0, 18640.0, 18664.0, 18702.0, 18678.0, 18708.0, 18654.0, 18644.0, 18618.0, 18618.0, 18612.0, 18632.0, 18664.0, 18702.0, 18630.0, 18708.0, 18662.0, 18598.0, 18620.0, 18618.0, 18620.0, 18628.0, 18650.0, 18674.0, 18700.0, 18624.0, 18672.0, 18676.0, 18642.0, 18584.0, 18584.0, 18622.0, 18600.0, 18660.0, 18684.0, 18666.0, 18586.0, 18678.0, 18702.0, 18636.0, 18612.0, 18582.0, 18584.0, 18610.0, 18640.0, 18674.0, 18724.0, 18702.0, 18674.0, 18724.0, 18654.0, 18640.0, 18612.0, 18616.0, 18632.0, 18704.0, 18714.0, 18668.0, 18662.0, 18660.0, 18642.0, 18652.0, 18710.0, 18720.0, 18658.0, 18620.0, 18642.0, 18610.0, 18600.0, 18638.0, 18662.0, 18674.0, 18678.0, 18672.0]
    },
    "slices": {}
  }
}