{
  "AcquisitionMatrixPE": 104,
  "AcquisitionNumber": 1,
  "AcquisitionTime": "11:42:28.205000",
  "BandwidthPerPixelPhaseEncode": 17.17,
  "BaseResolution": 104,
  "BodyPartExamined": "BRAIN",
  "CoilString": "HC1-7;NC1_2",
  "ConsistencyInfo": "N4_VE11C_LATEST_20160120",
  "ConversionSoftware": "dcm2niix",
  "ConversionSoftwareVersion": "v1.0.20190902",
  "DerivedVendorReportedEchoSpacing": 0.000560011,
  "DeviceSerialNumber": "167006",
  "DwellTime": 2.1e-06,
  "EchoTime": 0.037,
  "EchoTrainLength": 104,
  "EffectiveEchoSpacing": 0.000560011,
  "FlipAngle": 52,
  "ImageComments": "Unaliased_MB4_PE3_LB",
  "ImageOrientationPatientDICOM": [0.999483, 0.0138387, 0.0290219, 0.00331449, 0.853479, -0.521117],
  "ImageType": [
    "ORIGINAL",
    "PRIMARY",
    "M",
    "MB",
    "ND",
    "MOSAIC"
],
  "ImagingFrequency": 123.259,
  "InPlanePhaseEncodingDirectionDICOM": "COL",
  "InstitutionAddress": "Chemin_Queen-Mary_4565_Montreal_District_CA_H3W_1W5",
  "InstitutionName": "IUGM",
  "InstitutionalDepartmentName": "Department",
  "MRAcquisitionType": "2D",
  "MagneticFieldStrength": 3,
  "Manufacturer": "Siemens",
  "ManufacturersModelName": "Prisma_fit",
  "Modality": "MR",
  "MultibandAccelerationFactor": 4,
  "PartialFourier": 1,
  "PatientPosition": "HFS",
  "PercentPhaseFOV": 100,
  "PhaseEncodingDirection": "j",
  "PhaseEncodingSteps": 104,
  "PhaseResolution": 1,
  "PixelBandwidth": 2290,
  "ProcedureStepDescription": "localizers_retinotopy",
  "ProtocolName": "func_task-rings",
  "PulseSequenceDetails": "%CustomerSeq%_cmrr_mbep2d_bold",
  "ReceiveCoilActiveElements": "HC1-7;NC1,2",
  "ReceiveCoilName": "HeadNeck_64",
  "ReconMatrixPE": 104,
  "RepetitionTime": 1.49,
  "SAR": 0.0557401,
  "ScanOptions": "FS",
  "ScanningSequence": "EP",
  "SequenceName": "epfid2d1_104",
  "SequenceVariant": "SK_SS",
  "SeriesDescription": "func_task-rings",
  "SeriesNumber": 13,
  "ShimSetting": [617, -7174, -8889, 254, -3, -219, 20, 1],
  "SliceThickness": 2,
  "SliceTiming": [0, 0.785, 0.1, 0.8825, 0.1975, 0.98, 0.295, 1.08, 0.3925, 1.1775, 0.49, 1.275, 0.59, 1.3725, 0.6875, 0, 0.785, 0.1, 0.8825, 0.1975, 0.98, 0.295, 1.08, 0.3925, 1.1775, 0.49, 1.275, 0.59, 1.3725, 0.6875, 0, 0.785, 0.1, 0.8825, 0.1975, 0.98, 0.295, 1.08, 0.3925, 1.1775, 0.49, 1.275, 0.59, 1.3725, 0.6875, 0, 0.785, 0.1, 0.8825, 0.1975, 0.98, 0.295, 1.08, 0.3925, 1.1775, 0.49, 1.275, 0.59, 1.3725, 0.6875],
  "SoftwareVersions": "syngo_MR_E11",
  "SpacingBetweenSlices": 2,
  "StationName": "MRC35049",
  "TaskName": "rings",
  "TotalReadoutTime": 0.0576811,
  "TxRefAmp": 287.938,
  "WipMemBlock": "c20c07a1-edcf-42d7-8544-03da88fc9509||Sequence: R016 ve11c/master r/e634e98; Dec 19 2017 11:00:25 by eja",
  "dcmmeta_affine": [
    [-1.9989659786224365, 0.006628972012549639, 0.06396225094795227, 105.57747650146484],
    [-0.027677346020936966, 1.7069578170776367, -1.0418871641159058, -48.740665435791016],
    [0.05804375559091568, 1.0422335863113403, 1.7059836387634277, -108.4144515991211],
    [0.0, 0.0, 0.0, 1.0]
],
  "dcmmeta_reorient_transform": [
    [0.0, -1.0, 0.0, 103.0],
    [1.0, 0.0, 0.0, 0.0],
    [0.0, 0.0, 1.0, 0.0],
    [0.0, 0.0, 0.0, 1.0]
],
  "dcmmeta_shape": [104, 104, 60, 202],
  "dcmmeta_slice_dim": 2,
  "dcmmeta_version": 0.6,
  "global": {
    "const": {
      "AcquisitionMatrix": [104, 0, 0, 104],
      "AngioFlag": "N",
      "BitsAllocated": 16,
      "BitsStored": 16,
      "BodyPartExamined": "BRAIN",
      "Columns": 832,
      "EchoNumbers": 1,
      "EchoTime": 37.0,
      "EchoTrainLength": 104,
      "FlipAngle": 52.0,
      "HighBit": 15,
      "ImageOrientationPatient": [0.9994829772322, 0.01383867313621, 0.02902187707373, 0.00331448607435, 0.85347892455882, -0.5211168194522],
      "ImagePositionPatient": [-836.29681298694, -758.48320313529, 357.18073207964],
      "ImageType": [
        "ORIGINAL",
        "PRIMARY",
        "M",
        "MB",
        "ND",
        "MOSAIC"
],
      "ImagedNucleus": "1H",
      "ImagingFrequency": 123.258955,
      "InPlanePhaseEncodingDirection": "COL",
      "MRAcquisitionType": "2D",
      "MagneticFieldStrength": 3.0,
      "Manufacturer": "SIEMENS",
      "ManufacturerModelName": "Prisma_fit",
      "Modality": "MR",
      "NumberOfAverages": 1.0,
      "NumberOfPhaseEncodingSteps": 104,
      "PercentPhaseFieldOfView": 100.0,
      "PercentSampling": 100.0,
      "PerformedProcedureStepStartTime": "113247.737000",
      "PhotometricInterpretation": "MONOCHROME2",
      "PixelBandwidth": 2290.0,
      "PixelRepresentation": 0,
      "PixelSpacing": [2.0, 2.0],
      "ProtocolName": "func_task-rings",
      "RepetitionTime": 1490.0,
      "Rows": 832,
      "SAR": 0.05574006227752,
      "SamplesPerPixel": 1,
      "ScanOptions": "FS",
      "ScanningSequence": "EP",
      "SequenceName": "epfid2d1_104",
      "SequenceVariant": [
        "SK",
        "SS"
],
      "SeriesDescription": "func_task-rings",
      "SeriesNumber": 13,
      "SeriesTime": "114349.065000",
      "SliceLocation": -63.709012331783,
      "SliceThickness": 2.0,
      "SmallestImagePixelValue": 0,
      "SoftwareVersions": "syngo MR E11",
      "SpacingBetweenSlices": 2.0000000424503,
      "SpecificCharacterSet": "ISO_IR 100",
      "StudyID": "1",
      "StudyTime": "113247.652000",
      "TransmitCoilName": "Body",
      "VariableFlipAngleFlag": "N",
      "WindowCenterWidthExplanation": "Algo1",
      "dBdt": 0.0},
    "slices": {}
  },
  "time": {
    "samples": {
      "AcquisitionNumber": [1, 2, 3, 4, 5, 6, 7, 8, 9, 10, 11, 12, 13, 14, 15, 16, 17, 18, 19, 20, 21, 22, 23, 24, 25, 26, 27, 28, 29, 30, 31, 32, 33, 34, 35, 36, 37, 38, 39, 40, 41, 42, 43, 44, 45, 46, 47, 48, 49, 50, 51, 52, 53, 54, 55, 56, 57, 58, 59, 60, 61, 62, 63, 64, 65, 66, 67, 68, 69, 70, 71, 72, 73, 74, 75, 76, 77, 78, 79, 80, 81, 82, 83, 84, 85, 86, 87, 88, 89, 90, 91, 92, 93, 94, 95, 96, 97, 98, 99, 100, 101, 102, 103, 104, 105, 106, 107, 108, 109, 110, 111, 112, 113, 114, 115, 116, 117, 118, 119, 120, 121, 122, 123, 124, 125, 126, 127, 128, 129, 130, 131, 132, 133, 134, 135, 136, 137, 138, 139, 140, 141, 142, 143, 144, 145, 146, 147, 148, 149, 150, 151, 152, 153, 154, 155, 156, 157, 158, 159, 160, 161, 162, 163, 164, 165, 166, 167, 168, 169, 170, 171, 172, 173, 174, 175, 176, 177, 178, 179, 180, 181, 182, 183, 184, 185, 186, 187, 188, 189, 190, 191, 192, 193, 194, 195, 196, 197, 198, 199, 200, 201, 202],
      "AcquisitionTime": ["114228.205000", "114229.695000", "114231.185000", "114232.675000", "114234.165000", "114235.655000", "114237.145000", "114238.635000", "114240.125000", "114241.615000", "114243.105000", "114244.595000", "114246.085000", "114247.575000", "114249.065000", "114250.555000", "114252.045000", "114253.535000", "114255.025000", "114256.515000", "114258.005000", "114259.495000", "114300.985000", "114302.475000", "114303.965000", "114305.455000", "114306.945000", "114308.435000", "114309.925000", "114311.415000", "114312.905000", "114314.395000", "114315.885000", "114317.375000", "114318.865000", "114320.355000", "114321.845000", "114323.335000", "114324.825000", "114326.315000", "114327.805000", "114329.295000", "114330.785000", "114332.275000", "114333.765000", "114335.255000", "114336.745000", "114338.235000", "114339.725000", "114341.215000", "114342.705000", "114344.195000", "114345.685000", "114347.175000", "114348.665000", "114350.155000", "114351.645000", "114353.135000", "114354.625000", "114356.115000", "114357.605000", "114359.095000", "114400.585000", "114402.075000", "114403.565000", "114405.055000", "114406.545000", "114408.035000", "114409.525000", "114411.015000", "114412.505000", "114413.995000", "114415.485000", "114416.975000", "114418.465000", "114419.955000", "114421.445000", "114422.935000", "114424.425000", "114425.915000", "114427.405000", "114428.895000", "114430.385000", "114431.875000", "114433.365000", "114434.855000", "114436.345000", "114437.835000", "114439.325000", "114440.815000", "114442.305000", "114443.795000", "114445.285000", "114446.775000", "114448.265000", "114449.755000", "114451.245000", "114452.735000", "114454.225000", "114455.715000", "114457.205000", "114458.695000", "114500.185000", "114501.675000", "114503.165000", "114504.655000", "114506.145000", "114507.635000", "114509.125000", "114510.615000", "114512.105000", "114513.595000", "114515.085000", "114516.575000", "114518.065000", "114519.555000", "114521.045000", "114522.535000", "114524.025000", "114525.515000", "114527.005000", "114528.495000", "114529.985000", "114531.475000", "114532.965000", "114534.455000", "114535.945000", "114537.435000", "114538.925000", "114540.415000", "114541.905000", "114543.395000", "114544.885000", "114546.375000", "114547.865000", "114549.355000", "114550.845000", "114552.335000", "114553.825000", "114555.315000", "114556.805000", "114558.295000", "114559.785000", "114601.275000", "114602.765000", "114604.255000", "114605.745000", "114607.235000", "114608.725000", "114610.215000", "114611.705000", "114613.195000", "114614.685000", "114616.175000", "114617.665000", "114619.155000", "114620.645000", "114622.135000", "114623.625000", "114625.115000", "114626.605000", "114628.095000", "114629.585000", "114631.075000", "114632.565000", "114634.055000", "114635.545000", "114637.035000", "114638.525000", "114640.015000", "114641.505000", "114642.995000", "114644.485000", "114645.975000", "114647.465000", "114648.955000", "114650.445000", "114651.935000", "114653.425000", "114654.915000", "114656.405000", "114657.895000", "114659.385000", "114700.875000", "114702.365000", "114703.855000", "114705.345000", "114706.835000", "114708.325000", "114709.815000", "114711.305000", "114712.795000", "114714.285000", "114715.775000", "114717.265000", "114718.755000", "114720.245000", "114721.735000", "114723.225000", "114724.715000", "114726.205000", "114727.695000"],
      "ContentTime": ["114349.068000", "114349.072000", "114349.075000", "114349.078000", "114349.082000", "114349.085000", "114349.088000", "114349.092000", "114349.097000", "114349.100000", "114349.104000", "114349.107000", "114349.110000", "114349.113000", "114349.117000", "114349.120000", "114349.123000", "114349.127000", "114349.130000", "114349.133000", "114349.136000", "114349.140000", "114349.143000", "114349.146000", "114349.149000", "114349.153000", "114349.156000", "114409.035000", "114409.039000", "114409.042000", "114409.045000", "114409.048000", "114409.052000", "114409.055000", "114409.058000", "114409.062000", "114409.065000", "114409.068000", "114409.071000", "114409.075000", "114409.078000", "114409.081000", "114409.084000", "114409.088000", "114409.091000", "114409.094000", "114409.097000", "114429.036000", "114429.040000", "114429.043000", "114429.046000", "114429.050000", "114429.053000", "114429.056000", "114429.059000", "114429.063000", "114429.067000", "114429.070000", "114429.074000", "114429.077000", "114429.080000", "114429.084000", "114429.087000", "114429.090000", "114429.093000", "114429.097000", "114429.112000", "114449.036000", "114449.040000", "114449.043000", "114449.046000", "114449.050000", "114449.053000", "114449.056000", "114449.060000", "114449.063000", "114449.066000", "114449.069000", "114449.073000", "114449.076000", "114449.079000", "114449.083000", "114449.086000", "114449.089000", "114449.093000", "114449.096000", "114449.100000", "114509.036000", "114509.040000", "114509.043000", "114509.046000", "114509.050000", "114509.053000", "114509.056000", "114509.059000", "114509.063000", "114509.066000", "114509.069000", "114509.072000", "114509.076000", "114509.079000", "114509.082000", "114509.086000", "114509.089000", "114509.092000", "114509.095000", "114509.099000", "114549.036000", "114549.040000", "114549.043000", "114549.047000", "114549.050000", "114549.053000", "114549.057000", "114549.060000", "114549.063000", "114549.066000", "114549.070000", "114549.073000", "114549.076000", "114549.079000", "114549.083000", "114549.086000", "114549.090000", "114549.093000", "114549.096000", "114549.100000", "114549.103000", "114549.106000", "114549.110000", "114549.113000", "114549.116000", "114549.119000", "114549.123000", "114629.035000", "114629.039000", "114629.042000", "114629.046000", "114629.049000", "114629.053000", "114629.056000", "114629.059000", "114629.062000", "114629.066000", "114629.069000", "114629.072000", "114629.076000", "114629.079000", "114629.082000", "114629.085000", "114629.089000", "114629.092000", "114629.095000", "114629.098000", "114629.103000", "114629.106000", "114629.109000", "114629.112000", "114629.116000", "114629.119000", "114629.122000", "114709.053000", "114709.056000", "114709.060000", "114709.063000", "114709.066000", "114709.069000", "114709.073000", "114709.076000", "114709.079000", "114709.083000", "114709.086000", "114709.089000", "114709.093000", "114709.096000", "114709.099000", "114709.103000", "114709.106000", "114709.109000", "114709.112000", "114709.116000", "114709.119000", "114709.122000", "114709.126000", "114709.129000", "114709.132000", "114709.135000", "114709.139000", "114729.535000", "114729.539000", "114729.542000", "114729.546000", "114729.549000", "114729.552000", "114729.555000", "114729.559000", "114729.563000", "114729.566000", "114729.569000", "114729.573000", "114729.576000", "114729.580000"],
      "InstanceCreationTime": ["114349.068000", "114349.072000", "114349.075000", "114349.078000", "114349.082000", "114349.085000", "114349.088000", "114349.092000", "114349.097000", "114349.100000", "114349.104000", "114349.107000", "114349.110000", "114349.113000", "114349.117000", "114349.120000", "114349.123000", "114349.127000", "114349.130000", "114349.133000", "114349.136000", "114349.140000", "114349.143000", "114349.146000", "114349.149000", "114349.153000", "114349.156000", "114409.035000", "114409.039000", "114409.042000", "114409.045000", "114409.048000", "114409.052000", "114409.055000", "114409.058000", "114409.062000", "114409.065000", "114409.068000", "114409.071000", "114409.075000", "114409.078000", "114409.081000", "114409.084000", "114409.088000", "114409.091000", "114409.094000", "114409.097000", "114429.036000", "114429.040000", "114429.043000", "114429.046000", "114429.050000", "114429.053000", "114429.056000", "114429.059000", "114429.063000", "114429.067000", "114429.070000", "114429.074000", "114429.077000", "114429.080000", "114429.084000", "114429.087000", "114429.090000", "114429.093000", "114429.097000", "114429.112000", "114449.036000", "114449.040000", "114449.043000", "114449.046000", "114449.050000", "114449.053000", "114449.056000", "114449.060000", "114449.063000", "114449.066000", "114449.069000", "114449.073000", "114449.076000", "114449.079000", "114449.083000", "114449.086000", "114449.089000", "114449.093000", "114449.096000", "114449.100000", "114509.036000", "114509.040000", "114509.043000", "114509.046000", "114509.050000", "114509.053000", "114509.056000", "114509.059000", "114509.063000", "114509.066000", "114509.069000", "114509.072000", "114509.076000", "114509.079000", "114509.082000", "114509.086000", "114509.089000", "114509.092000", "114509.095000", "114509.099000", "114549.036000", "114549.040000", "114549.043000", "114549.047000", "114549.050000", "114549.053000", "114549.057000", "114549.060000", "114549.063000", "114549.066000", "114549.070000", "114549.073000", "114549.076000", "114549.079000", "114549.083000", "114549.086000", "114549.090000", "114549.093000", "114549.096000", "114549.100000", "114549.103000", "114549.106000", "114549.110000", "114549.113000", "114549.116000", "114549.119000", "114549.123000", "114629.035000", "114629.039000", "114629.042000", "114629.046000", "114629.049000", "114629.053000", "114629.056000", "114629.059000", "114629.062000", "114629.066000", "114629.069000", "114629.072000", "114629.076000", "114629.079000", "114629.082000", "114629.085000", "114629.089000", "114629.092000", "114629.095000", "114629.098000", "114629.103000", "114629.106000", "114629.109000", "114629.112000", "114629.116000", "114629.119000", "114629.122000", "114709.053000", "114709.056000", "114709.060000", "114709.063000", "114709.066000", "114709.069000", "114709.073000", "114709.076000", "114709.079000", "114709.083000", "114709.086000", "114709.089000", "114709.093000", "114709.096000", "114709.099000", "114709.103000", "114709.106000", "114709.109000", "114709.112000", "114709.116000", "114709.119000", "114709.122000", "114709.126000", "114709.129000", "114709.132000", "114709.135000", "114709.139000", "114729.535000", "114729.539000", "114729.542000", "114729.546000", "114729.549000", "114729.552000", "114729.555000", "114729.559000", "114729.563000", "114729.566000", "114729.569000", "114729.573000", "114729.576000", "114729.580000"],
      "InstanceNumber": [1, 2, 3, 4, 5, 6, 7, 8, 9, 10, 11, 12, 13, 14, 15, 16, 17, 18, 19, 20, 21, 22, 23, 24, 25, 26, 27, 28, 29, 30, 31, 32, 33, 34, 35, 36, 37, 38, 39, 40, 41, 42, 43, 44, 45, 46, 47, 48, 49, 50, 51, 52, 53, 54, 55, 56, 57, 58, 59, 60, 61, 62, 63, 64, 65, 66, 67, 68, 69, 70, 71, 72, 73, 74, 75, 76, 77, 78, 79, 80, 81, 82, 83, 84, 85, 86, 87, 88, 89, 90, 91, 92, 93, 94, 95, 96, 97, 98, 99, 100, 101, 102, 103, 104, 105, 106, 107, 108, 109, 110, 111, 112, 113, 114, 115, 116, 117, 118, 119, 120, 121, 122, 123, 124, 125, 126, 127, 128, 129, 130, 131, 132, 133, 134, 135, 136, 137, 138, 139, 140, 141, 142, 143, 144, 145, 146, 147, 148, 149, 150, 151, 152, 153, 154, 155, 156, 157, 158, 159, 160, 161, 162, 163, 164, 165, 166, 167, 168, 169, 170, 171, 172, 173, 174, 175, 176, 177, 178, 179, 180, 181, 182, 183, 184, 185, 186, 187, 188, 189, 190, 191, 192, 193, 194, 195, 196, 197, 198, 199, 200, 201, 202],
      "LargestImagePixelValue": [48865, 48062, 47259, 48089, 47559, 46252, 46324, 45808, 46108, 46616, 46253, 47232, 48313, 47669, 45680, 45448, 45746, 45676, 46561, 47120, 47553, 45622, 45619, 45898, 46359, 45766, 46013, 46454, 46550, 47726, 47395, 47017, 45830, 45713, 46443, 45457, 45987, 46765, 46896, 47659, 47829, 46699, 46143, 46303, 45753, 46098, 48130, 48579, 47528, 46010, 46074, 46114, 46079, 46528, 47267, 48365, 44680, 47131, 45185, 45782, 47638, 47459, 48577, 48303, 48350, 46026, 46584, 47278, 45266, 46967, 47815, 48156, 48073, 47470, 47377, 47020, 46558, 46291, 45629, 46484, 46928, 48322, 49162, 48269, 46818, 45447, 45984, 47333, 47645, 48875, 48718, 47443, 46587, 44610, 45346, 45829, 46353, 47224, 47255, 47601, 47253, 47254, 46740, 47001, 47675, 44990, 46532, 44963, 45990, 47891, 48420, 48743, 47874, 48294, 47600, 49025, 45316, 46685, 46075, 46453, 48405, 48043, 48969, 48078, 47862, 48444, 48143, 44285, 47229, 46075, 45583, 46510, 47539, 47596, 47750, 46531, 45406, 45470, 45172, 46056, 46036, 46287, 47013, 47878, 46526, 45410, 45373, 45583, 45912, 46298, 47739, 47591, 46577, 44872, 45627, 45728, 46254, 46390, 46848, 47099, 47508, 47860, 47476, 44475, 46059, 45291, 46623, 47155, 47740, 47306, 47174, 48087, 47039, 47871, 47092, 45604, 45783, 44835, 47116, 47672, 48653, 47744, 45371, 45493, 45737, 45979, 47824, 47488, 48095, 48931, 48840, 46156, 45117, 45891, 46553, 46627, 46970, 48364, 49481, 46508, 44988, 44906],
      "WindowCenter": [11294.0, 11271.0, 11278.0, 11293.0, 11260.0, 11235.0, 11204.0, 11175.0, 11163.0, 11169.0, 11196.0, 11243.0, 11264.0, 11254.0, 11243.0, 11211.0, 11184.0, 11170.0, 11203.0, 11248.0, 11268.0, 11254.0, 11226.0, 11190.0, 11194.0, 11213.0, 11240.0, 11243.0, 11226.0, 11224.0, 11216.0, 11236.0, 11261.0, 11249.0, 11230.0, 11212.0, 11233.0, 11257.0, 11252.0, 11235.0, 11208.0, 11210.0, 11203.0, 11190.0, 11166.0, 11174.0, 11207.0, 11240.0, 11251.0, 11237.0, 11223.0, 11210.0, 11219.0, 11233.0, 11263.0, 11262.0, 11249.0, 11237.0, 11172.0, 11154.0, 11170.0, 11191.0, 11226.0, 11231.0, 11219.0, 11212.0, 11213.0, 11173.0, 11121.0, 11144.0, 11181.0, 11191.0, 11191.0, 11177.0, 11166.0, 11176.0, 11161.0, 11143.0, 11117.0, 11126.0, 11161.0, 11204.0, 11218.0, 11201.0, 11190.0, 11151.0, 11152.0, 11175.0, 11189.0, 11210.0, 11199.0, 11176.0, 11195.0, 11180.0, 11149.0, 11123.0, 11141.0, 11183.0, 11212.0, 11202.0, 11195.0, 11183.0, 11163.0, 11159.0, 11161.0, 11157.0, 11193.0, 11166.0, 11166.0, 11186.0, 11221.0, 11243.0, 11241.0, 11233.0, 11218.0, 11224.0, 11197.0, 11177.0, 11139.0, 11117.0, 11153.0, 11194.0, 11227.0, 11226.0, 11217.0, 11207.0, 11190.0, 11139.0, 11180.0, 11152.0, 11126.0, 11164.0, 11219.0, 11251.0, 11248.0, 11227.0, 11199.0, 11173.0, 11146.0, 11165.0, 11186.0, 11201.0, 11218.0, 11211.0, 11191.0, 11180.0, 11163.0, 11159.0, 11172.0, 11199.0, 11234.0, 11234.0, 11221.0, 11184.0, 11161.0, 11130.0, 11164.0, 11200.0, 11215.0, 11204.0, 11193.0, 11191.0, 11183.0, 11154.0, 11157.0, 11139.0, 11153.0, 11183.0, 11219.0, 11221.0, 11206.0, 11188.0, 11188.0, 11218.0, 11208.0, 11191.0, 11168.0, 11127.0, 11131.0, 11166.0, 11235.0, 11258.0, 11254.0, 11215.0, 11191.0, 11171.0, 11187.0, 11213.0, 11221.0, 11216.0, 11190.0, 11155.0, 11127.0, 11127.0, 11132.0, 11145.0, 11167.0, 11201.0, 11232.0, 11215.0, 11207.0, 11161.0],
      "WindowWidth": [24345.0, 24256.0, 24254.0, 24281.0, 24198.0, 24134.0, 24061.0, 23994.0, 23965.0, 23976.0, 24045.0, 24150.0, 24191.0, 24170.0, 24151.0, 24081.0, 24017.0, 23985.0, 24055.0, 24159.0, 24206.0, 24182.0, 24115.0, 24030.0, 24035.0, 24082.0, 24156.0, 24152.0, 24110.0, 24100.0, 24080.0, 24130.0, 24196.0, 24170.0, 24122.0, 24082.0, 24127.0, 24182.0, 24167.0, 24123.0, 24058.0, 24077.0, 24058.0, 24030.0, 23977.0, 23994.0, 24061.0, 24135.0, 24162.0, 24133.0, 24101.0, 24070.0, 24099.0, 24127.0, 24191.0, 24184.0, 24171.0, 24138.0, 23992.0, 23951.0, 23976.0, 24023.0, 24103.0, 24110.0, 24080.0, 24073.0, 24079.0, 23987.0, 23873.0, 23915.0, 23998.0, 24018.0, 24018.0, 23997.0, 23962.0, 23986.0, 23956.0, 23926.0, 23862.0, 23874.0, 23953.0, 24056.0, 24083.0, 24041.0, 24018.0, 23938.0, 23937.0, 23988.0, 24021.0, 24064.0, 24038.0, 23984.0, 24032.0, 24010.0, 23935.0, 23873.0, 23910.0, 24003.0, 24072.0, 24046.0, 24030.0, 23998.0, 23959.0, 23951.0, 23955.0, 23951.0, 24037.0, 23982.0, 23977.0, 24009.0, 24086.0, 24145.0, 24137.0, 24117.0, 24080.0, 24096.0, 24047.0, 23999.0, 23914.0, 23862.0, 23935.0, 24028.0, 24102.0, 24100.0, 24075.0, 24053.0, 24018.0, 23914.0, 23997.0, 23941.0, 23886.0, 23964.0, 24087.0, 24157.0, 24150.0, 24103.0, 24044.0, 23992.0, 23928.0, 23967.0, 24017.0, 24060.0, 24084.0, 24069.0, 24022.0, 23998.0, 23964.0, 23954.0, 23985.0, 24043.0, 24123.0, 24120.0, 24094.0, 24020.0, 23963.0, 23889.0, 23961.0, 24047.0, 24081.0, 24055.0, 24025.0, 24018.0, 24003.0, 23944.0, 23946.0, 23908.0, 23933.0, 23999.0, 24084.0, 24093.0, 24058.0, 24007.0, 24010.0, 24088.0, 24066.0, 24034.0, 23978.0, 23888.0, 23887.0, 23959.0, 24121.0, 24178.0, 24178.0, 24091.0, 24030.0, 23983.0, 24012.0, 24072.0, 24092.0, 24074.0, 24016.0, 23938.0, 23881.0, 23881.0, 23891.0, 23922.0, 23964.0, 24041.0, 24109.0, 24083.0, 24077.0, 23969.0]
    },
    "slices": {}
  }
}