{
  "AcquisitionMatrixPE": 104,
  "AcquisitionNumber": 1,
  "AcquisitionTime": "14:12:26.370000",
  "BandwidthPerPixelPhaseEncode": 17.17,
  "BaseResolution": 104,
  "BodyPartExamined": "BRAIN",
  "CoilString": "HC1-7;NC1_2",
  "ConsistencyInfo": "N4_VE11C_LATEST_20160120",
  "ConversionSoftware": "dcm2niix",
  "ConversionSoftwareVersion": "v1.0.20190902",
  "DerivedVendorReportedEchoSpacing": 0.000560011,
  "DeviceSerialNumber": "167006",
  "DwellTime": 2.1e-06,
  "EchoTime": 0.037,
  "EchoTrainLength": 104,
  "EffectiveEchoSpacing": 0.000560011,
  "FlipAngle": 52,
  "ImageComments": "Unaliased_MB4_PE3_LB",
  "ImageOrientationPatientDICOM": [0.999193, 0.00837845, 0.0392857, 0.00156951, 0.969116, -0.246602],
  "ImageType": [
    "ORIGINAL",
    "PRIMARY",
    "M",
    "MB",
    "ND",
    "MOSAIC"
],
  "ImagingFrequency": 123.259,
  "InPlanePhaseEncodingDirectionDICOM": "COL",
  "InstitutionAddress": "Chemin_Queen-Mary_4565_Montreal_District_CA_H3W_1W5",
  "InstitutionName": "IUGM",
  "InstitutionalDepartmentName": "Department",
  "MRAcquisitionType": "2D",
  "MagneticFieldStrength": 3,
  "Manufacturer": "Siemens",
  "ManufacturersModelName": "Prisma_fit",
  "Modality": "MR",
  "MultibandAccelerationFactor": 4,
  "PartialFourier": 1,
  "PatientPosition": "HFS",
  "PercentPhaseFOV": 100,
  "PhaseEncodingDirection": "j",
  "PhaseEncodingSteps": 104,
  "PhaseResolution": 1,
  "PixelBandwidth": 2290,
  "ProcedureStepDescription": "localizers_retinotopy",
  "ProtocolName": "func_task-wedges",
  "PulseSequenceDetails": "%CustomerSeq%_cmrr_mbep2d_bold",
  "ReceiveCoilActiveElements": "HC1-7;NC1,2",
  "ReceiveCoilName": "HeadNeck_64",
  "ReconMatrixPE": 104,
  "RepetitionTime": 1.49,
  "SAR": 0.0515837,
  "ScanOptions": "FS",
  "ScanningSequence": "EP",
  "SequenceName": "epfid2d1_104",
  "SequenceVariant": "SK_SS",
  "SeriesDescription": "func_task-wedges",
  "SeriesNumber": 10,
  "ShimSetting": [640, -7220, -8774, 734, 72, 29, 54, -2],
  "SliceThickness": 2,
  "SliceTiming": [0, 0.7825, 0.0975, 0.88, 0.195, 0.98, 0.2925, 1.0775, 0.39, 1.175, 0.49, 1.2725, 0.5875, 1.37, 0.685, 0, 0.7825, 0.0975, 0.88, 0.195, 0.98, 0.2925, 1.0775, 0.39, 1.175, 0.49, 1.2725, 0.5875, 1.37, 0.685, 0, 0.7825, 0.0975, 0.88, 0.195, 0.98, 0.2925, 1.0775, 0.39, 1.175, 0.49, 1.2725, 0.5875, 1.37, 0.685, 0, 0.7825, 0.0975, 0.88, 0.195, 0.98, 0.2925, 1.0775, 0.39, 1.175, 0.49, 1.2725, 0.5875, 1.37, 0.685],
  "SoftwareVersions": "syngo_MR_E11",
  "SpacingBetweenSlices": 2,
  "StationName": "MRC35049",
  "TaskName": "wedges",
  "TotalReadoutTime": 0.0576811,
  "TxRefAmp": 239.209,
  "WipMemBlock": "7cdbf934-b275-4353-a233-125b7ccefa89||Sequence: R016 ve11c/master r/e634e98; Dec 19 2017 11:00:25 by eja",
  "dcmmeta_affine": [
    [-1.9983857870101929, 0.003139013424515724, 0.08027709275484085, 106.73081970214844],
    [-0.016756901517510414, 1.9382312297821045, -0.49292877316474915, -74.45459747314453],
    [0.07857144623994827, 0.4932035207748413, 1.9366406202316284, -59.122711181640625],
    [0.0, 0.0, 0.0, 1.0]
],
  "dcmmeta_reorient_transform": [
    [0.0, -1.0, 0.0, 103.0],
    [1.0, 0.0, 0.0, 0.0],
    [0.0, 0.0, 1.0, 0.0],
    [0.0, 0.0, 0.0, 1.0]
],
  "dcmmeta_shape": [104, 104, 60, 202],
  "dcmmeta_slice_dim": 2,
  "dcmmeta_version": 0.6,
  "global": {
    "const": {
      "AcquisitionMatrix": [104, 0, 0, 104],
      "AngioFlag": "N",
      "BitsAllocated": 16,
      "BitsStored": 16,
      "BodyPartExamined": "BRAIN",
      "Columns": 832,
      "EchoNumbers": 1,
      "EchoTime": 37.0,
      "EchoTrainLength": 104,
      "FlipAngle": 52.0,
      "HighBit": 15,
      "ImageOrientationPatient": [0.99919289110709, 0.00837845103527, 0.03928572157045, 0.0015695067077, 0.96911563384947, -0.2466017535972],
      "ImagePositionPatient": [-835.60916515967, -836.79892048202, 142.6033231525],
      "ImageType": [
        "ORIGINAL",
        "PRIMARY",
        "M",
        "MB",
        "ND",
        "MOSAIC"
],
      "ImagedNucleus": "1H",
      "ImagingFrequency": 123.258927,
      "InPlanePhaseEncodingDirection": "COL",
      "MRAcquisitionType": "2D",
      "MagneticFieldStrength": 3.0,
      "Manufacturer": "SIEMENS",
      "ManufacturerModelName": "Prisma_fit",
      "Modality": "MR",
      "NumberOfAverages": 1.0,
      "NumberOfPhaseEncodingSteps": 104,
      "PercentPhaseFieldOfView": 100.0,
      "PercentSampling": 100.0,
      "PerformedProcedureStepStartTime": "140912.631000",
      "PhotometricInterpretation": "MONOCHROME2",
      "PixelBandwidth": 2290.0,
      "PixelRepresentation": 0,
      "PixelSpacing": [2.0, 2.0],
      "ProtocolName": "func_task-wedges",
      "RepetitionTime": 1490.0,
      "Rows": 832,
      "SAR": 0.05158370409637,
      "SamplesPerPixel": 1,
      "ScanOptions": "FS",
      "ScanningSequence": "EP",
      "SequenceName": "epfid2d1_104",
      "SequenceVariant": [
        "SK",
        "SS"
],
      "SeriesDescription": "func_task-wedges",
      "SeriesNumber": 10,
      "SeriesTime": "141355.256000",
      "SliceLocation": -34.615294472631,
      "SliceThickness": 2.0,
      "SmallestImagePixelValue": 0,
      "SoftwareVersions": "syngo MR E11",
      "SpacingBetweenSlices": 2.000000016403,
      "SpecificCharacterSet": "ISO_IR 100",
      "StudyID": "1",
      "StudyTime": "140912.546000",
      "TransmitCoilName": "Body",
      "VariableFlipAngleFlag": "N",
      "WindowCenterWidthExplanation": "Algo1",
      "dBdt": 0.0},
    "slices": {}
  },
  "time": {
    "samples": {
      "AcquisitionNumber": [1, 2, 3, 4, 5, 6, 7, 8, 9, 10, 11, 12, 13, 14, 15, 16, 17, 18, 19, 20, 21, 22, 23, 24, 25, 26, 27, 28, 29, 30, 31, 32, 33, 34, 35, 36, 37, 38, 39, 40, 41, 42, 43, 44, 45, 46, 47, 48, 49, 50, 51, 52, 53, 54, 55, 56, 57, 58, 59, 60, 61, 62, 63, 64, 65, 66, 67, 68, 69, 70, 71, 72, 73, 74, 75, 76, 77, 78, 79, 80, 81, 82, 83, 84, 85, 86, 87, 88, 89, 90, 91, 92, 93, 94, 95, 96, 97, 98, 99, 100, 101, 102, 103, 104, 105, 106, 107, 108, 109, 110, 111, 112, 113, 114, 115, 116, 117, 118, 119, 120, 121, 122, 123, 124, 125, 126, 127, 128, 129, 130, 131, 132, 133, 134, 135, 136, 137, 138, 139, 140, 141, 142, 143, 144, 145, 146, 147, 148, 149, 150, 151, 152, 153, 154, 155, 156, 157, 158, 159, 160, 161, 162, 163, 164, 165, 166, 167, 168, 169, 170, 171, 172, 173, 174, 175, 176, 177, 178, 179, 180, 181, 182, 183, 184, 185, 186, 187, 188, 189, 190, 191, 192, 193, 194, 195, 196, 197, 198, 199, 200, 201, 202],
      "AcquisitionTime": ["141226.370000", "141227.860000", "141229.350000", "141230.840000", "141232.330000", "141233.820000", "141235.310000", "141236.800000", "141238.290000", "141239.780000", "141241.270000", "141242.760000", "141244.250000", "141245.740000", "141247.230000", "141248.720000", "141250.210000", "141251.700000", "141253.190000", "141254.680000", "141256.170000", "141257.660000", "141259.150000", "141300.640000", "141302.130000", "141303.620000", "141305.110000", "141306.600000", "141308.090000", "141309.580000", "141311.070000", "141312.560000", "141314.050000", "141315.540000", "141317.030000", "141318.520000", "141320.010000", "141321.500000", "141322.990000", "141324.480000", "141325.970000", "141327.460000", "141328.950000", "141330.440000", "141331.930000", "141333.420000", "141334.910000", "141336.400000", "141337.890000", "141339.380000", "141340.870000", "141342.360000", "141343.850000", "141345.340000", "141346.830000", "141348.320000", "141349.810000", "141351.300000", "141352.790000", "141354.280000", "141355.770000", "141357.260000", "141358.750000", "141400.240000", "141401.730000", "141403.220000", "141404.710000", "141406.200000", "141407.690000", "141409.180000", "141410.670000", "141412.160000", "141413.650000", "141415.140000", "141416.630000", "141418.120000", "141419.610000", "141421.100000", "141422.590000", "141424.080000", "141425.570000", "141427.060000", "141428.550000", "141430.040000", "141431.530000", "141433.020000", "141434.510000", "141436.000000", "141437.490000", "141438.980000", "141440.470000", "141441.960000", "141443.450000", "141444.940000", "141446.430000", "141447.920000", "141449.410000", "141450.900000", "141452.390000", "141453.880000", "141455.370000", "141456.860000", "141458.350000", "141459.840000", "141501.330000", "141502.820000", "141504.310000", "141505.800000", "141507.290000", "141508.780000", "141510.270000", "141511.760000", "141513.250000", "141514.740000", "141516.230000", "141517.720000", "141519.210000", "141520.700000", "141522.190000", "141523.680000", "141525.170000", "141526.660000", "141528.150000", "141529.640000", "141531.130000", "141532.620000", "141534.110000", "141535.600000", "141537.090000", "141538.580000", "141540.070000", "141541.560000", "141543.050000", "141544.540000", "141546.030000", "141547.520000", "141549.010000", "141550.500000", "141551.990000", "141553.480000", "141554.970000", "141556.460000", "141557.950000", "141559.440000", "141600.930000", "141602.420000", "141603.910000", "141605.400000", "141606.890000", "141608.380000", "141609.870000", "141611.360000", "141612.850000", "141614.340000", "141615.830000", "141617.320000", "141618.810000", "141620.300000", "141621.790000", "141623.280000", "141624.770000", "141626.260000", "141627.750000", "141629.240000", "141630.730000", "141632.220000", "141633.710000", "141635.200000", "141636.690000", "141638.180000", "141639.670000", "141641.160000", "141642.650000", "141644.140000", "141645.630000", "141647.120000", "141648.610000", "141650.100000", "141651.590000", "141653.080000", "141654.570000", "141656.060000", "141657.550000", "141659.040000", "141700.530000", "141702.020000", "141703.510000", "141705.000000", "141706.490000", "141707.980000", "141709.470000", "141710.960000", "141712.450000", "141713.940000", "141715.430000", "141716.920000", "141718.410000", "141719.900000", "141721.390000", "141722.880000", "141724.370000", "141725.860000"],
      "ContentTime": ["141355.260000", "141355.264000", "141355.267000", "141355.270000", "141355.273000", "141355.282000", "141355.286000", "141355.289000", "141355.292000", "141355.296000", "141355.299000", "141355.302000", "141355.305000", "141355.309000", "141355.312000", "141355.316000", "141355.319000", "141355.322000", "141355.326000", "141355.329000", "141355.332000", "141355.336000", "141355.339000", "141355.343000", "141355.346000", "141355.349000", "141355.352000", "141355.363000", "141355.366000", "141355.369000", "141355.373000", "141355.376000", "141355.379000", "141355.382000", "141415.224000", "141415.228000", "141415.231000", "141415.235000", "141415.238000", "141415.241000", "141415.245000", "141415.248000", "141415.251000", "141415.255000", "141415.258000", "141415.261000", "141415.265000", "141415.268000", "141415.271000", "141415.274000", "141415.278000", "141415.281000", "141415.284000", "141415.287000", "141435.224000", "141435.228000", "141435.236000", "141435.239000", "141435.242000", "141435.246000", "141435.249000", "141435.252000", "141435.256000", "141435.259000", "141435.262000", "141435.265000", "141435.269000", "141435.272000", "141435.275000", "141435.279000", "141435.282000", "141435.286000", "141435.289000", "141435.292000", "141435.296000", "141455.223000", "141455.227000", "141455.230000", "141455.233000", "141455.236000", "141455.247000", "141455.251000", "141455.254000", "141455.257000", "141455.261000", "141455.264000", "141455.267000", "141455.270000", "141455.274000", "141455.277000", "141455.280000", "141455.284000", "141455.299000", "141455.302000", "141455.305000", "141535.223000", "141535.227000", "141535.230000", "141535.233000", "141535.236000", "141535.240000", "141535.243000", "141535.246000", "141535.250000", "141535.253000", "141535.256000", "141535.260000", "141535.263000", "141535.266000", "141535.269000", "141535.273000", "141535.276000", "141535.279000", "141535.283000", "141535.286000", "141535.289000", "141535.292000", "141535.296000", "141535.299000", "141535.302000", "141535.305000", "141535.309000", "141535.312000", "141535.315000", "141535.319000", "141535.322000", "141615.224000", "141615.228000", "141615.231000", "141615.234000", "141615.238000", "141615.241000", "141615.244000", "141615.248000", "141615.251000", "141615.254000", "141615.258000", "141615.261000", "141615.264000", "141615.268000", "141615.271000", "141615.274000", "141615.278000", "141615.281000", "141615.284000", "141615.288000", "141615.291000", "141615.294000", "141615.297000", "141615.301000", "141615.304000", "141615.308000", "141615.311000", "141655.224000", "141655.234000", "141655.237000", "141655.241000", "141655.244000", "141655.247000", "141655.251000", "141655.254000", "141655.257000", "141655.261000", "141655.264000", "141655.267000", "141655.270000", "141655.274000", "141655.277000", "141655.280000", "141655.284000", "141655.287000", "141655.290000", "141655.294000", "141655.297000", "141655.300000", "141655.304000", "141655.307000", "141655.310000", "141655.314000", "141655.317000", "141727.983000", "141727.996000", "141728.001000", "141728.004000", "141728.008000", "141728.011000", "141728.014000", "141728.018000", "141728.022000", "141728.025000", "141728.029000", "141728.032000", "141728.036000", "141728.039000", "141728.042000", "141728.046000", "141728.049000", "141728.053000", "141728.056000", "141728.059000", "141728.063000", "141728.066000"],
      "InstanceCreationTime": ["141355.260000", "141355.264000", "141355.267000", "141355.270000", "141355.273000", "141355.282000", "141355.286000", "141355.289000", "141355.292000", "141355.296000", "141355.299000", "141355.302000", "141355.305000", "141355.309000", "141355.312000", "141355.316000", "141355.319000", "141355.322000", "141355.326000", "141355.329000", "141355.332000", "141355.336000", "141355.339000", "141355.343000", "141355.346000", "141355.349000", "141355.352000", "141355.363000", "141355.366000", "141355.369000", "141355.373000", "141355.376000", "141355.379000", "141355.382000", "141415.224000", "141415.228000", "141415.231000", "141415.235000", "141415.238000", "141415.241000", "141415.245000", "141415.248000", "141415.251000", "141415.255000", "141415.258000", "141415.261000", "141415.265000", "141415.268000", "141415.271000", "141415.274000", "141415.278000", "141415.281000", "141415.284000", "141415.287000", "141435.224000", "141435.228000", "141435.236000", "141435.239000", "141435.242000", "141435.246000", "141435.249000", "141435.252000", "141435.256000", "141435.259000", "141435.262000", "141435.265000", "141435.269000", "141435.272000", "141435.275000", "141435.279000", "141435.282000", "141435.286000", "141435.289000", "141435.292000", "141435.296000", "141455.223000", "141455.227000", "141455.230000", "141455.233000", "141455.236000", "141455.247000", "141455.251000", "141455.254000", "141455.257000", "141455.261000", "141455.264000", "141455.267000", "141455.270000", "141455.274000", "141455.277000", "141455.280000", "141455.284000", "141455.299000", "141455.302000", "141455.305000", "141535.223000", "141535.227000", "141535.230000", "141535.233000", "141535.236000", "141535.240000", "141535.243000", "141535.246000", "141535.250000", "141535.253000", "141535.256000", "141535.260000", "141535.263000", "141535.266000", "141535.269000", "141535.273000", "141535.276000", "141535.279000", "141535.283000", "141535.286000", "141535.289000", "141535.292000", "141535.296000", "141535.299000", "141535.302000", "141535.305000", "141535.309000", "141535.312000", "141535.315000", "141535.319000", "141535.322000", "141615.224000", "141615.228000", "141615.231000", "141615.234000", "141615.238000", "141615.241000", "141615.244000", "141615.248000", "141615.251000", "141615.254000", "141615.258000", "141615.261000", "141615.264000", "141615.268000", "141615.271000", "141615.274000", "141615.278000", "141615.281000", "141615.284000", "141615.288000", "141615.291000", "141615.294000", "141615.297000", "141615.301000", "141615.304000", "141615.308000", "141615.311000", "141655.224000", "141655.234000", "141655.237000", "141655.241000", "141655.244000", "141655.247000", "141655.251000", "141655.254000", "141655.257000", "141655.261000", "141655.264000", "141655.267000", "141655.270000", "141655.274000", "141655.277000", "141655.280000", "141655.284000", "141655.287000", "141655.290000", "141655.294000", "141655.297000", "141655.300000", "141655.304000", "141655.307000", "141655.310000", "141655.314000", "141655.317000", "141727.983000", "141727.996000", "141728.001000", "141728.004000", "141728.008000", "141728.011000", "141728.014000", "141728.018000", "141728.022000", "141728.025000", "141728.029000", "141728.032000", "141728.036000", "141728.039000", "141728.042000", "141728.046000", "141728.049000", "141728.053000", "141728.056000", "141728.059000", "141728.063000", "141728.066000"],
      "InstanceNumber": [1, 2, 3, 4, 5, 6, 7, 8, 9, 10, 11, 12, 13, 14, 15, 16, 17, 18, 19, 20, 21, 22, 23, 24, 25, 26, 27, 28, 29, 30, 31, 32, 33, 34, 35, 36, 37, 38, 39, 40, 41, 42, 43, 44, 45, 46, 47, 48, 49, 50, 51, 52, 53, 54, 55, 56, 57, 58, 59, 60, 61, 62, 63, 64, 65, 66, 67, 68, 69, 70, 71, 72, 73, 74, 75, 76, 77, 78, 79, 80, 81, 82, 83, 84, 85, 86, 87, 88, 89, 90, 91, 92, 93, 94, 95, 96, 97, 98, 99, 100, 101, 102, 103, 104, 105, 106, 107, 108, 109, 110, 111, 112, 113, 114, 115, 116, 117, 118, 119, 120, 121, 122, 123, 124, 125, 126, 127, 128, 129, 130, 131, 132, 133, 134, 135, 136, 137, 138, 139, 140, 141, 142, 143, 144, 145, 146, 147, 148, 149, 150, 151, 152, 153, 154, 155, 156, 157, 158, 159, 160, 161, 162, 163, 164, 165, 166, 167, 168, 169, 170, 171, 172, 173, 174, 175, 176, 177, 178, 179, 180, 181, 182, 183, 184, 185, 186, 187, 188, 189, 190, 191, 192, 193, 194, 195, 196, 197, 198, 199, 200, 201, 202],
      "LargestImagePixelValue": [40700, 39544, 39569, 38451, 37930, 37950, 37952, 37953, 37856, 38053, 37857, 38354, 37958, 38217, 37833, 38008, 37536, 37845, 37847, 37957, 37678, 38179, 38556, 37795, 37946, 38040, 38059, 37640, 37596, 37503, 37592, 37237, 37936, 37925, 37757, 37718, 37784, 37938, 37943, 37655, 37688, 38041, 37723, 37619, 37767, 37912, 37169, 37484, 37568, 38040, 37761, 37547, 37566, 37472, 37820, 37902, 38280, 37902, 38310, 37408, 38022, 38223, 37948, 37798, 37998, 37892, 37605, 37571, 37945, 37910, 37409, 37416, 37661, 37794, 37616, 37763, 37483, 37813, 38129, 38080, 38305, 37925, 37970, 37609, 37612, 37860, 37584, 38128, 37984, 38284, 37851, 37761, 37643, 37810, 37978, 37486, 37498, 37914, 37702, 37610, 37575, 37818, 37848, 37946, 37886, 37939, 37801, 38132, 37827, 38673, 37745, 38203, 37814, 37840, 37703, 38194, 37999, 37361, 37760, 38154, 38211, 37873, 37663, 38108, 38258, 37815, 38282, 38219, 37697, 37926, 37611, 37677, 37810, 37795, 37618, 37874, 37536, 38226, 38037, 38297, 38673, 38776, 38235, 38277, 38232, 38138, 38603, 37855, 37768, 38040, 38212, 37495, 38270, 38096, 38157, 37658, 38012, 37588, 37910, 38025, 37665, 37824, 38224, 37807, 37590, 37584, 37844, 37900, 37915, 37736, 37775, 37686, 38004, 37981, 37644, 37713, 37941, 38285, 38216, 37770, 37980, 37675, 38456, 38251, 37992, 38239, 38233, 37846, 37835, 37747, 38168, 37988, 37813, 37731, 38300, 37902, 37961, 37551, 37504, 37288, 37668, 38002],
      "WindowCenter": [10134.0, 10101.0, 10097.0, 10095.0, 10102.0, 10104.0, 10094.0, 10094.0, 10072.0, 10070.0, 10060.0, 10081.0, 10077.0, 10086.0, 10093.0, 10101.0, 10092.0, 10090.0, 10077.0, 10074.0, 10070.0, 10085.0, 10092.0, 10081.0, 10085.0, 10093.0, 10102.0, 10113.0, 10117.0, 10117.0, 10107.0, 10086.0, 10095.0, 10094.0, 10095.0, 10095.0, 10088.0, 10092.0, 10092.0, 10094.0, 10095.0, 10093.0, 10089.0, 10089.0, 10096.0, 10114.0, 10112.0, 10112.0, 10108.0, 10095.0, 10094.0, 10091.0, 10100.0, 10098.0, 10088.0, 10071.0, 10067.0, 10074.0, 10091.0, 10077.0, 10094.0, 10080.0, 10076.0, 10077.0, 10095.0, 10099.0, 10099.0, 10085.0, 10103.0, 10114.0, 10120.0, 10105.0, 10085.0, 10065.0, 10064.0, 10071.0, 10066.0, 10063.0, 10060.0, 10052.0, 10056.0, 10065.0, 10085.0, 10084.0, 10081.0, 10071.0, 10057.0, 10085.0, 10104.0, 10115.0, 10102.0, 10098.0, 10082.0, 10094.0, 10097.0, 10099.0, 10083.0, 10095.0, 10098.0, 10092.0, 10076.0, 10063.0, 10053.0, 10061.0, 10081.0, 10113.0, 10101.0, 10081.0, 10049.0, 10049.0, 10052.0, 10083.0, 10083.0, 10084.0, 10082.0, 10086.0, 10087.0, 10084.0, 10100.0, 10106.0, 10106.0, 10094.0, 10092.0, 10095.0, 10095.0, 10089.0, 10095.0, 10095.0, 10089.0, 10103.0, 10106.0, 10091.0, 10066.0, 10054.0, 10048.0, 10048.0, 10042.0, 10027.0, 10001.0, 10012.0, 10020.0, 10027.0, 10032.0, 10048.0, 10057.0, 10065.0, 10089.0, 10103.0, 10107.0, 10108.0, 10106.0, 10092.0, 10086.0, 10078.0, 10096.0, 10108.0, 10116.0, 10094.0, 10089.0, 10073.0, 10064.0, 10068.0, 10075.0, 10081.0, 10084.0, 10082.0, 10079.0, 10089.0, 10098.0, 10100.0, 10098.0, 10092.0, 10114.0, 10116.0, 10109.0, 10085.0, 10073.0, 10074.0, 10077.0, 10081.0, 10095.0, 10083.0, 10086.0, 10076.0, 10070.0, 10077.0, 10086.0, 10095.0, 10097.0, 10097.0, 10110.0, 10112.0, 10107.0, 10106.0, 10097.0, 10088.0, 10088.0, 10084.0, 10090.0, 10082.0, 10072.0, 10067.0],
      "WindowWidth": [21602.0, 21504.0, 21482.0, 21475.0, 21489.0, 21493.0, 21468.0, 21465.0, 21419.0, 21414.0, 21389.0, 21431.0, 21427.0, 21446.0, 21463.0, 21481.0, 21465.0, 21457.0, 21426.0, 21417.0, 21411.0, 21445.0, 21461.0, 21441.0, 21445.0, 21464.0, 21486.0, 21511.0, 21524.0, 21520.0, 21495.0, 21452.0, 21465.0, 21464.0, 21467.0, 21465.0, 21452.0, 21457.0, 21459.0, 21465.0, 21467.0, 21462.0, 21454.0, 21456.0, 21472.0, 21514.0, 21516.0, 21512.0, 21499.0, 21467.0, 21464.0, 21459.0, 21481.0, 21474.0, 21449.0, 21409.0, 21399.0, 21417.0, 21454.0, 21431.0, 21463.0, 21431.0, 21418.0, 21423.0, 21467.0, 21479.0, 21479.0, 21450.0, 21485.0, 21511.0, 21527.0, 21494.0, 21445.0, 21397.0, 21395.0, 21409.0, 21401.0, 21391.0, 21381.0, 21362.0, 21369.0, 21395.0, 21442.0, 21445.0, 21434.0, 21410.0, 21383.0, 21443.0, 21488.0, 21512.0, 21485.0, 21473.0, 21440.0, 21462.0, 21473.0, 21477.0, 21440.0, 21462.0, 21472.0, 21459.0, 21423.0, 21390.0, 21368.0, 21386.0, 21436.0, 21507.0, 21480.0, 21431.0, 21360.0, 21356.0, 21369.0, 21434.0, 21441.0, 21444.0, 21438.0, 21446.0, 21449.0, 21446.0, 21481.0, 21493.0, 21490.0, 21468.0, 21462.0, 21465.0, 21461.0, 21449.0, 21461.0, 21462.0, 21449.0, 21482.0, 21491.0, 21457.0, 21400.0, 21369.0, 21357.0, 21362.0, 21347.0, 21310.0, 21250.0, 21269.0, 21288.0, 21305.0, 21320.0, 21356.0, 21375.0, 21392.0, 21445.0, 21481.0, 21493.0, 21495.0, 21489.0, 21458.0, 21441.0, 21425.0, 21468.0, 21498.0, 21512.0, 21467.0, 21450.0, 21415.0, 21395.0, 21402.0, 21416.0, 21435.0, 21444.0, 21439.0, 21431.0, 21451.0, 21475.0, 21478.0, 21473.0, 21462.0, 21509.0, 21514.0, 21496.0, 21444.0, 21415.0, 21412.0, 21422.0, 21434.0, 21464.0, 21440.0, 21439.0, 21416.0, 21407.0, 21421.0, 21442.0, 21464.0, 21468.0, 21468.0, 21496.0, 21498.0, 21489.0, 21486.0, 21465.0, 21446.0, 21446.0, 21444.0, 21456.0, 21435.0, 21411.0, 21398.0]
    },
    "slices": {}
  }
}