{
  "AcquisitionMatrixPE": 104,
  "AcquisitionNumber": 1,
  "AcquisitionTime": "14:18:52.077500",
  "BandwidthPerPixelPhaseEncode": 17.17,
  "BaseResolution": 104,
  "BodyPartExamined": "BRAIN",
  "CoilString": "HC1-7;NC1_2",
  "ConsistencyInfo": "N4_VE11C_LATEST_20160120",
  "ConversionSoftware": "dcm2niix",
  "ConversionSoftwareVersion": "v1.0.20190902",
  "DerivedVendorReportedEchoSpacing": 0.000560011,
  "DeviceSerialNumber": "167006",
  "DwellTime": 2.1e-06,
  "EchoTime": 0.037,
  "EchoTrainLength": 104,
  "EffectiveEchoSpacing": 0.000560011,
  "FlipAngle": 52,
  "ImageComments": "Unaliased_MB4_PE3_LB",
  "ImageOrientationPatientDICOM": [0.999193, 0.00837845, 0.0392857, 0.00156951, 0.969116, -0.246602],
  "ImageType": [
    "ORIGINAL",
    "PRIMARY",
    "M",
    "MB",
    "ND",
    "MOSAIC"
],
  "ImagingFrequency": 123.259,
  "InPlanePhaseEncodingDirectionDICOM": "COL",
  "InstitutionAddress": "Chemin_Queen-Mary_4565_Montreal_District_CA_H3W_1W5",
  "InstitutionName": "IUGM",
  "InstitutionalDepartmentName": "Department",
  "MRAcquisitionType": "2D",
  "MagneticFieldStrength": 3,
  "Manufacturer": "Siemens",
  "ManufacturersModelName": "Prisma_fit",
  "Modality": "MR",
  "MultibandAccelerationFactor": 4,
  "PartialFourier": 1,
  "PatientPosition": "HFS",
  "PercentPhaseFOV": 100,
  "PhaseEncodingDirection": "j",
  "PhaseEncodingSteps": 104,
  "PhaseResolution": 1,
  "PixelBandwidth": 2290,
  "ProcedureStepDescription": "localizers_retinotopy",
  "ProtocolName": "func_task-rings",
  "PulseSequenceDetails": "%CustomerSeq%_cmrr_mbep2d_bold",
  "ReceiveCoilActiveElements": "HC1-7;NC1,2",
  "ReceiveCoilName": "HeadNeck_64",
  "ReconMatrixPE": 104,
  "RepetitionTime": 1.49,
  "SAR": 0.0515837,
  "ScanOptions": "FS",
  "ScanningSequence": "EP",
  "SequenceName": "epfid2d1_104",
  "SequenceVariant": "SK_SS",
  "SeriesDescription": "func_task-rings",
  "SeriesNumber": 13,
  "ShimSetting": [640, -7220, -8774, 734, 72, 29, 54, -2],
  "SliceThickness": 2,
  "SliceTiming": [0, 0.785, 0.0975, 0.8825, 0.195, 0.98, 0.295, 1.0775, 0.3925, 1.175, 0.49, 1.2725, 0.5875, 1.3725, 0.685, 0, 0.785, 0.0975, 0.8825, 0.195, 0.98, 0.295, 1.0775, 0.3925, 1.175, 0.49, 1.2725, 0.5875, 1.3725, 0.685, 0, 0.785, 0.0975, 0.8825, 0.195, 0.98, 0.295, 1.0775, 0.3925, 1.175, 0.49, 1.2725, 0.5875, 1.3725, 0.685, 0, 0.785, 0.0975, 0.8825, 0.195, 0.98, 0.295, 1.0775, 0.3925, 1.175, 0.49, 1.2725, 0.5875, 1.3725, 0.685],
  "SoftwareVersions": "syngo_MR_E11",
  "SpacingBetweenSlices": 2,
  "StationName": "MRC35049",
  "TaskName": "rings",
  "TotalReadoutTime": 0.0576811,
  "TxRefAmp": 239.209,
  "WipMemBlock": "15a62027-379a-4f5a-b314-1dbb662f2bb7||Sequence: R016 ve11c/master r/e634e98; Dec 19 2017 11:00:25 by eja",
  "dcmmeta_affine": [
    [-1.9983857870101929, 0.003139013424515724, 0.08027709275484085, 106.73081970214844],
    [-0.016756901517510414, 1.9382312297821045, -0.49292877316474915, -74.45459747314453],
    [0.07857144623994827, 0.4932035207748413, 1.9366406202316284, -59.122711181640625],
    [0.0, 0.0, 0.0, 1.0]
],
  "dcmmeta_reorient_transform": [
    [0.0, -1.0, 0.0, 103.0],
    [1.0, 0.0, 0.0, 0.0],
    [0.0, 0.0, 1.0, 0.0],
    [0.0, 0.0, 0.0, 1.0]
],
  "dcmmeta_shape": [104, 104, 60, 202],
  "dcmmeta_slice_dim": 2,
  "dcmmeta_version": 0.6,
  "global": {
    "const": {
      "AcquisitionMatrix": [104, 0, 0, 104],
      "AngioFlag": "N",
      "BitsAllocated": 16,
      "BitsStored": 16,
      "BodyPartExamined": "BRAIN",
      "Columns": 832,
      "EchoNumbers": 1,
      "EchoTime": 37.0,
      "EchoTrainLength": 104,
      "FlipAngle": 52.0,
      "HighBit": 15,
      "ImageOrientationPatient": [0.99919289110709, 0.00837845103527, 0.03928572157045, 0.0015695067077, 0.96911563384947, -0.2466017535972],
      "ImagePositionPatient": [-835.60916515967, -836.79892048202, 142.6033231525],
      "ImageType": [
        "ORIGINAL",
        "PRIMARY",
        "M",
        "MB",
        "ND",
        "MOSAIC"
],
      "ImagedNucleus": "1H",
      "ImagingFrequency": 123.25893,
      "InPlanePhaseEncodingDirection": "COL",
      "MRAcquisitionType": "2D",
      "MagneticFieldStrength": 3.0,
      "Manufacturer": "SIEMENS",
      "ManufacturerModelName": "Prisma_fit",
      "Modality": "MR",
      "NumberOfAverages": 1.0,
      "NumberOfPhaseEncodingSteps": 104,
      "PercentPhaseFieldOfView": 100.0,
      "PercentSampling": 100.0,
      "PerformedProcedureStepStartTime": "140912.631000",
      "PhotometricInterpretation": "MONOCHROME2",
      "PixelBandwidth": 2290.0,
      "PixelRepresentation": 0,
      "PixelSpacing": [2.0, 2.0],
      "ProtocolName": "func_task-rings",
      "RepetitionTime": 1490.0,
      "Rows": 832,
      "SAR": 0.05158370409637,
      "SamplesPerPixel": 1,
      "ScanOptions": "FS",
      "ScanningSequence": "EP",
      "SequenceName": "epfid2d1_104",
      "SequenceVariant": [
        "SK",
        "SS"
],
      "SeriesDescription": "func_task-rings",
      "SeriesNumber": 13,
      "SeriesTime": "141951.420000",
      "SliceLocation": -34.615294472631,
      "SliceThickness": 2.0,
      "SmallestImagePixelValue": 0,
      "SoftwareVersions": "syngo MR E11",
      "SpacingBetweenSlices": 2.000000016403,
      "SpecificCharacterSet": "ISO_IR 100",
      "StudyID": "1",
      "StudyTime": "140912.546000",
      "TransmitCoilName": "Body",
      "VariableFlipAngleFlag": "N",
      "WindowCenterWidthExplanation": "Algo1",
      "dBdt": 0.0},
    "slices": {}
  },
  "time": {
    "samples": {
      "AcquisitionNumber": [1, 2, 3, 4, 5, 6, 7, 8, 9, 10, 11, 12, 13, 14, 15, 16, 17, 18, 19, 20, 21, 22, 23, 24, 25, 26, 27, 28, 29, 30, 31, 32, 33, 34, 35, 36, 37, 38, 39, 40, 41, 42, 43, 44, 45, 46, 47, 48, 49, 50, 51, 52, 53, 54, 55, 56, 57, 58, 59, 60, 61, 62, 63, 64, 65, 66, 67, 68, 69, 70, 71, 72, 73, 74, 75, 76, 77, 78, 79, 80, 81, 82, 83, 84, 85, 86, 87, 88, 89, 90, 91, 92, 93, 94, 95, 96, 97, 98, 99, 100, 101, 102, 103, 104, 105, 106, 107, 108, 109, 110, 111, 112, 113, 114, 115, 116, 117, 118, 119, 120, 121, 122, 123, 124, 125, 126, 127, 128, 129, 130, 131, 132, 133, 134, 135, 136, 137, 138, 139, 140, 141, 142, 143, 144, 145, 146, 147, 148, 149, 150, 151, 152, 153, 154, 155, 156, 157, 158, 159, 160, 161, 162, 163, 164, 165, 166, 167, 168, 169, 170, 171, 172, 173, 174, 175, 176, 177, 178, 179, 180, 181, 182, 183, 184, 185, 186, 187, 188, 189, 190, 191, 192, 193, 194, 195, 196, 197, 198, 199, 200, 201, 202],
      "AcquisitionTime": ["141852.077500", "141853.567500", "141855.057500", "141856.547500", "141858.037500", "141859.527500", "141901.017500", "141902.507500", "141903.997500", "141905.487500", "141906.977500", "141908.467500", "141909.957500", "141911.447500", "141912.937500", "141914.427500", "141915.917500", "141917.407500", "141918.897500", "141920.387500", "141921.877500", "141923.367500", "141924.857500", "141926.347500", "141927.837500", "141929.327500", "141930.817500", "141932.307500", "141933.797500", "141935.287500", "141936.777500", "141938.267500", "141939.757500", "141941.247500", "141942.737500", "141944.227500", "141945.717500", "141947.207500", "141948.697500", "141950.187500", "141951.677500", "141953.167500", "141954.657500", "141956.147500", "141957.637500", "141959.127500", "142000.617500", "142002.107500", "142003.597500", "142005.087500", "142006.577500", "142008.067500", "142009.557500", "142011.047500", "142012.537500", "142014.027500", "142015.517500", "142017.007500", "142018.497500", "142019.987500", "142021.477500", "142022.967500", "142024.457500", "142025.947500", "142027.437500", "142028.927500", "142030.417500", "142031.907500", "142033.397500", "142034.887500", "142036.377500", "142037.867500", "142039.357500", "142040.847500", "142042.337500", "142043.827500", "142045.317500", "142046.807500", "142048.297500", "142049.787500", "142051.277500", "142052.767500", "142054.257500", "142055.747500", "142057.237500", "142058.727500", "142100.217500", "142101.707500", "142103.197500", "142104.687500", "142106.177500", "142107.667500", "142109.157500", "142110.647500", "142112.137500", "142113.627500", "142115.117500", "142116.607500", "142118.097500", "142119.587500", "142121.077500", "142122.567500", "142124.057500", "142125.547500", "142127.037500", "142128.527500", "142130.017500", "142131.507500", "142132.997500", "142134.487500", "142135.977500", "142137.467500", "142138.957500", "142140.447500", "142141.937500", "142143.427500", "142144.917500", "142146.407500", "142147.897500", "142149.387500", "142150.877500", "142152.367500", "142153.857500", "142155.347500", "142156.837500", "142158.327500", "142159.817500", "142201.307500", "142202.797500", "142204.287500", "142205.777500", "142207.267500", "142208.757500", "142210.247500", "142211.737500", "142213.227500", "142214.717500", "142216.207500", "142217.697500", "142219.187500", "142220.677500", "142222.167500", "142223.657500", "142225.147500", "142226.637500", "142228.127500", "142229.617500", "142231.107500", "142232.597500", "142234.087500", "142235.577500", "142237.067500", "142238.557500", "142240.047500", "142241.537500", "142243.027500", "142244.517500", "142246.007500", "142247.497500", "142248.987500", "142250.477500", "142251.967500", "142253.457500", "142254.947500", "142256.437500", "142257.927500", "142259.417500", "142300.907500", "142302.397500", "142303.887500", "142305.377500", "142306.867500", "142308.357500", "142309.847500", "142311.337500", "142312.827500", "142314.317500", "142315.807500", "142317.297500", "142318.787500", "142320.277500", "142321.767500", "142323.257500", "142324.747500", "142326.237500", "142327.727500", "142329.217500", "142330.707500", "142332.197500", "142333.687500", "142335.177500", "142336.667500", "142338.157500", "142339.647500", "142341.137500", "142342.627500", "142344.117500", "142345.607500", "142347.097500", "142348.587500", "142350.077500", "142351.567500"],
      "ContentTime": ["141951.423000", "141951.426000", "141951.430000", "141951.448000", "142011.360000", "142011.371000", "142011.375000", "142011.378000", "142011.381000", "142011.384000", "142011.388000", "142011.391000", "142011.394000", "142011.398000", "142011.401000", "142011.404000", "142011.407000", "142011.411000", "142011.414000", "142011.417000", "142011.421000", "142011.424000", "142011.427000", "142011.431000", "142011.434000", "142031.360000", "142031.364000", "142031.367000", "142031.370000", "142031.374000", "142031.377000", "142031.380000", "142031.383000", "142031.387000", "142031.390000", "142031.393000", "142031.396000", "142031.400000", "142031.403000", "142031.406000", "142031.409000", "142031.413000", "142031.416000", "142031.419000", "142031.422000", "142051.360000", "142051.364000", "142051.367000", "142051.370000", "142051.374000", "142051.377000", "142051.380000", "142051.384000", "142051.387000", "142051.390000", "142051.394000", "142051.397000", "142051.400000", "142051.403000", "142051.407000", "142051.410000", "142051.413000", "142051.417000", "142051.420000", "142051.423000", "142111.361000", "142111.365000", "142111.368000", "142111.371000", "142111.375000", "142111.378000", "142111.381000", "142111.385000", "142111.388000", "142111.391000", "142111.395000", "142111.398000", "142111.402000", "142111.406000", "142111.409000", "142111.413000", "142111.416000", "142111.419000", "142111.422000", "142111.426000", "142131.361000", "142131.365000", "142131.368000", "142131.371000", "142131.374000", "142131.378000", "142131.381000", "142131.384000", "142131.388000", "142131.391000", "142131.394000", "142131.398000", "142131.401000", "142131.404000", "142131.408000", "142131.411000", "142131.414000", "142131.418000", "142131.421000", "142131.424000", "142131.427000", "142211.361000", "142211.365000", "142211.368000", "142211.372000", "142211.375000", "142211.378000", "142211.382000", "142211.385000", "142211.388000", "142211.391000", "142211.395000", "142211.398000", "142211.401000", "142211.405000", "142211.408000", "142211.411000", "142211.415000", "142211.418000", "142211.421000", "142211.425000", "142211.428000", "142211.431000", "142211.435000", "142211.438000", "142211.441000", "142211.445000", "142211.448000", "142251.360000", "142251.364000", "142251.368000", "142251.372000", "142251.375000", "142251.379000", "142251.383000", "142251.386000", "142251.390000", "142251.393000", "142251.397000", "142251.400000", "142251.404000", "142251.407000", "142251.410000", "142251.414000", "142251.417000", "142251.420000", "142251.424000", "142251.427000", "142251.430000", "142251.433000", "142251.437000", "142251.440000", "142251.443000", "142251.453000", "142331.361000", "142331.365000", "142331.368000", "142331.372000", "142331.375000", "142331.378000", "142331.382000", "142331.385000", "142331.388000", "142331.392000", "142331.395000", "142331.399000", "142331.402000", "142331.405000", "142331.408000", "142331.412000", "142331.415000", "142331.418000", "142331.422000", "142331.425000", "142331.428000", "142331.432000", "142331.435000", "142331.439000", "142331.442000", "142331.445000", "142331.448000", "142354.014000", "142354.018000", "142354.022000", "142354.025000", "142354.029000", "142354.033000", "142354.037000", "142354.040000", "142354.044000", "142354.049000", "142354.053000", "142354.058000", "142354.061000", "142354.065000", "142354.069000", "142354.072000"],
      "InstanceCreationTime": ["141951.423000", "141951.426000", "141951.430000", "141951.448000", "142011.360000", "142011.371000", "142011.375000", "142011.378000", "142011.381000", "142011.384000", "142011.388000", "142011.391000", "142011.394000", "142011.398000", "142011.401000", "142011.404000", "142011.407000", "142011.411000", "142011.414000", "142011.417000", "142011.421000", "142011.424000", "142011.427000", "142011.431000", "142011.434000", "142031.360000", "142031.364000", "142031.367000", "142031.370000", "142031.374000", "142031.377000", "142031.380000", "142031.383000", "142031.387000", "142031.390000", "142031.393000", "142031.396000", "142031.400000", "142031.403000", "142031.406000", "142031.409000", "142031.413000", "142031.416000", "142031.419000", "142031.422000", "142051.360000", "142051.364000", "142051.367000", "142051.370000", "142051.374000", "142051.377000", "142051.380000", "142051.384000", "142051.387000", "142051.390000", "142051.394000", "142051.397000", "142051.400000", "142051.403000", "142051.407000", "142051.410000", "142051.413000", "142051.417000", "142051.420000", "142051.423000", "142111.361000", "142111.365000", "142111.368000", "142111.371000", "142111.375000", "142111.378000", "142111.381000", "142111.385000", "142111.388000", "142111.391000", "142111.395000", "142111.398000", "142111.402000", "142111.406000", "142111.409000", "142111.413000", "142111.416000", "142111.419000", "142111.422000", "142111.426000", "142131.361000", "142131.365000", "142131.368000", "142131.371000", "142131.374000", "142131.378000", "142131.381000", "142131.384000", "142131.388000", "142131.391000", "142131.394000", "142131.398000", "142131.401000", "142131.404000", "142131.408000", "142131.411000", "142131.414000", "142131.418000", "142131.421000", "142131.424000", "142131.427000", "142211.361000", "142211.365000", "142211.368000", "142211.372000", "142211.375000", "142211.378000", "142211.382000", "142211.385000", "142211.388000", "142211.391000", "142211.395000", "142211.398000", "142211.401000", "142211.405000", "142211.408000", "142211.411000", "142211.415000", "142211.418000", "142211.421000", "142211.425000", "142211.428000", "142211.431000", "142211.435000", "142211.438000", "142211.441000", "142211.445000", "142211.448000", "142251.360000", "142251.364000", "142251.368000", "142251.372000", "142251.375000", "142251.379000", "142251.383000", "142251.386000", "142251.390000", "142251.393000", "142251.397000", "142251.400000", "142251.404000", "142251.407000", "142251.410000", "142251.414000", "142251.417000", "142251.420000", "142251.424000", "142251.427000", "142251.430000", "142251.433000", "142251.437000", "142251.440000", "142251.443000", "142251.453000", "142331.361000", "142331.365000", "142331.368000", "142331.372000", "142331.375000", "142331.378000", "142331.382000", "142331.385000", "142331.388000", "142331.392000", "142331.395000", "142331.399000", "142331.402000", "142331.405000", "142331.408000", "142331.412000", "142331.415000", "142331.418000", "142331.422000", "142331.425000", "142331.428000", "142331.432000", "142331.435000", "142331.439000", "142331.442000", "142331.445000", "142331.448000", "142354.014000", "142354.018000", "142354.022000", "142354.025000", "142354.029000", "142354.033000", "142354.037000", "142354.040000", "142354.044000", "142354.049000", "142354.053000", "142354.058000", "142354.061000", "142354.065000", "142354.069000", "142354.072000"],
      "InstanceNumber": [1, 2, 3, 4, 5, 6, 7, 8, 9, 10, 11, 12, 13, 14, 15, 16, 17, 18, 19, 20, 21, 22, 23, 24, 25, 26, 27, 28, 29, 30, 31, 32, 33, 34, 35, 36, 37, 38, 39, 40, 41, 42, 43, 44, 45, 46, 47, 48, 49, 50, 51, 52, 53, 54, 55, 56, 57, 58, 59, 60, 61, 62, 63, 64, 65, 66, 67, 68, 69, 70, 71, 72, 73, 74, 75, 76, 77, 78, 79, 80, 81, 82, 83, 84, 85, 86, 87, 88, 89, 90, 91, 92, 93, 94, 95, 96, 97, 98, 99, 100, 101, 102, 103, 104, 105, 106, 107, 108, 109, 110, 111, 112, 113, 114, 115, 116, 117, 118, 119, 120, 121, 122, 123, 124, 125, 126, 127, 128, 129, 130, 131, 132, 133, 134, 135, 136, 137, 138, 139, 140, 141, 142, 143, 144, 145, 146, 147, 148, 149, 150, 151, 152, 153, 154, 155, 156, 157, 158, 159, 160, 161, 162, 163, 164, 165, 166, 167, 168, 169, 170, 171, 172, 173, 174, 175, 176, 177, 178, 179, 180, 181, 182, 183, 184, 185, 186, 187, 188, 189, 190, 191, 192, 193, 194, 195, 196, 197, 198, 199, 200, 201, 202],
      "LargestImagePixelValue": [40611, 40077, 39023, 38772, 38677, 38230, 38306, 38092, 37926, 37398, 37338, 37818, 37831, 37603, 37869, 37770, 38063, 37683, 38189, 37675, 37622, 37755, 38126, 38250, 38183, 37892, 37975, 37946, 38006, 38016, 38234, 38059, 38138, 38218, 38347, 37497, 37898, 38032, 38129, 37913, 38037, 37567, 38121, 37803, 37826, 37591, 38144, 38005, 37823, 38111, 38291, 37955, 38036, 37975, 38390, 38502, 38404, 38192, 37804, 37914, 37953, 37963, 38001, 37805, 38140, 38066, 38076, 37921, 37942, 38136, 38432, 38373, 38240, 37862, 37787, 38046, 38185, 38188, 38122, 38338, 37913, 38450, 38108, 38562, 37770, 38107, 37959, 37984, 38075, 38056, 37940, 37829, 37691, 38314, 38451, 37870, 37953, 38005, 37968, 37807, 38049, 38316, 38245, 37793, 38293, 38104, 37923, 38349, 37941, 37439, 38127, 38211, 38272, 38172, 37758, 38006, 38211, 37896, 37855, 37747, 38266, 38153, 38010, 38128, 38145, 38036, 38041, 37875, 37655, 37910, 38184, 38200, 38052, 37898, 38199, 37978, 38417, 38413, 38576, 38064, 38472, 38127, 37880, 37903, 38367, 38044, 37958, 38362, 37922, 37861, 38085, 37790, 37794, 37747, 37859, 37713, 37821, 37513, 37934, 37903, 37824, 37814, 38051, 37739, 37818, 38069, 38017, 38000, 37827, 37656, 38152, 37893, 37668, 37664, 37716, 37976, 37611, 37744, 37508, 37592, 38013, 37868, 37878, 38106, 37856, 37610, 37829, 38034, 37950, 37187, 37580, 37322, 37756, 37986, 37893, 38014, 38127, 37752, 37829, 37583, 37561, 37810],
      "WindowCenter": [10112.0, 10063.0, 10060.0, 10061.0, 10059.0, 10047.0, 10059.0, 10086.0, 10107.0, 10111.0, 10100.0, 10083.0, 10080.0, 10075.0, 10075.0, 10084.0, 10089.0, 10083.0, 10081.0, 10075.0, 10066.0, 10064.0, 10064.0, 10078.0, 10086.0, 10081.0, 10087.0, 10096.0, 10098.0, 10097.0, 10097.0, 10090.0, 10096.0, 10105.0, 10105.0, 10078.0, 10068.0, 10069.0, 10072.0, 10073.0, 10079.0, 10081.0, 10098.0, 10108.0, 10101.0, 10085.0, 10075.0, 10070.0, 10072.0, 10082.0, 10099.0, 10091.0, 10076.0, 10063.0, 10066.0, 10083.0, 10111.0, 10102.0, 10093.0, 10067.0, 10056.0, 10045.0, 10046.0, 10047.0, 10076.0, 10090.0, 10092.0, 10074.0, 10048.0, 10052.0, 10064.0, 10079.0, 10086.0, 10073.0, 10074.0, 10097.0, 10109.0, 10109.0, 10085.0, 10072.0, 10055.0, 10052.0, 10060.0, 10084.0, 10076.0, 10073.0, 10062.0, 10068.0, 10081.0, 10105.0, 10107.0, 10103.0, 10096.0, 10091.0, 10089.0, 10101.0, 10111.0, 10102.0, 10096.0, 10084.0, 10082.0, 10078.0, 10077.0, 10072.0, 10071.0, 10064.0, 10063.0, 10055.0, 10054.0, 10054.0, 10062.0, 10064.0, 10071.0, 10065.0, 10064.0, 10073.0, 10091.0, 10101.0, 10093.0, 10084.0, 10090.0, 10082.0, 10080.0, 10074.0, 10072.0, 10065.0, 10064.0, 10065.0, 10065.0, 10065.0, 10056.0, 10034.0, 10036.0, 10055.0, 10080.0, 10075.0, 10064.0, 10046.0, 10041.0, 10049.0, 10067.0, 10071.0, 10066.0, 10064.0, 10071.0, 10063.0, 10056.0, 10062.0, 10066.0, 10067.0, 10073.0, 10066.0, 10066.0, 10056.0, 10047.0, 10045.0, 10047.0, 10040.0, 10045.0, 10060.0, 10065.0, 10057.0, 10051.0, 10036.0, 10052.0, 10077.0, 10096.0, 10082.0, 10067.0, 10050.0, 10047.0, 10045.0, 10047.0, 10053.0, 10063.0, 10080.0, 10089.0, 10084.0, 10076.0, 10066.0, 10072.0, 10067.0, 10066.0, 10063.0, 10055.0, 10048.0, 10047.0, 10063.0, 10088.0, 10079.0, 10069.0, 10042.0, 10037.0, 10043.0, 10054.0, 10060.0, 10071.0, 10080.0, 10075.0, 10061.0, 10058.0, 10047.0],
      "WindowWidth": [21548.0, 21415.0, 21394.0, 21395.0, 21384.0, 21360.0, 21384.0, 21446.0, 21498.0, 21506.0, 21480.0, 21440.0, 21431.0, 21421.0, 21422.0, 21443.0, 21453.0, 21439.0, 21431.0, 21420.0, 21400.0, 21395.0, 21396.0, 21427.0, 21445.0, 21436.0, 21449.0, 21470.0, 21474.0, 21469.0, 21468.0, 21456.0, 21469.0, 21490.0, 21486.0, 21432.0, 21407.0, 21404.0, 21412.0, 21416.0, 21427.0, 21435.0, 21475.0, 21496.0, 21478.0, 21443.0, 21421.0, 21405.0, 21411.0, 21437.0, 21475.0, 21457.0, 21421.0, 21388.0, 21393.0, 21433.0, 21497.0, 21482.0, 21460.0, 21402.0, 21373.0, 21348.0, 21350.0, 21356.0, 21418.0, 21455.0, 21460.0, 21416.0, 21359.0, 21367.0, 21396.0, 21430.0, 21442.0, 21417.0, 21418.0, 21470.0, 21498.0, 21495.0, 21441.0, 21407.0, 21370.0, 21361.0, 21381.0, 21435.0, 21426.0, 21416.0, 21389.0, 21402.0, 21434.0, 21488.0, 21492.0, 21485.0, 21469.0, 21453.0, 21447.0, 21480.0, 21502.0, 21481.0, 21462.0, 21440.0, 21431.0, 21421.0, 21418.0, 21408.0, 21404.0, 21392.0, 21388.0, 21369.0, 21368.0, 21368.0, 21388.0, 21397.0, 21410.0, 21398.0, 21397.0, 21418.0, 21459.0, 21482.0, 21464.0, 21442.0, 21452.0, 21435.0, 21427.0, 21413.0, 21406.0, 21395.0, 21393.0, 21396.0, 21396.0, 21393.0, 21373.0, 21319.0, 21329.0, 21375.0, 21429.0, 21420.0, 21391.0, 21348.0, 21336.0, 21356.0, 21396.0, 21407.0, 21398.0, 21392.0, 21405.0, 21390.0, 21377.0, 21387.0, 21400.0, 21401.0, 21413.0, 21400.0, 21398.0, 21375.0, 21355.0, 21349.0, 21357.0, 21343.0, 21351.0, 21385.0, 21399.0, 21378.0, 21359.0, 21326.0, 21362.0, 21418.0, 21463.0, 21432.0, 21397.0, 21360.0, 21351.0, 21348.0, 21354.0, 21368.0, 21392.0, 21432.0, 21454.0, 21444.0, 21425.0, 21400.0, 21412.0, 21403.0, 21397.0, 21387.0, 21372.0, 21355.0, 21354.0, 21389.0, 21447.0, 21431.0, 21407.0, 21346.0, 21330.0, 21343.0, 21370.0, 21384.0, 21410.0, 21430.0, 21419.0, 21386.0, 21375.0, 21351.0]
    },
    "slices": {}
  }
}