{
  "AcquisitionMatrixPE": 104,
  "AcquisitionNumber": 1,
  "AcquisitionTime": "11:27:39.035000",
  "BandwidthPerPixelPhaseEncode": 17.17,
  "BaseResolution": 104,
  "BodyPartExamined": "BRAIN",
  "CoilString": "HC1-7;NC1_2",
  "ConsistencyInfo": "N4_VE11C_LATEST_20160120",
  "ConversionSoftware": "dcm2niix",
  "ConversionSoftwareVersion": "v1.0.20190902",
  "DerivedVendorReportedEchoSpacing": 0.000560011,
  "DeviceSerialNumber": "167006",
  "DwellTime": 2.1e-06,
  "EchoTime": 0.037,
  "EchoTrainLength": 104,
  "EffectiveEchoSpacing": 0.000560011,
  "FlipAngle": 52,
  "ImageComments": "Unaliased_MB4_PE3_LB",
  "ImageOrientationPatientDICOM": [0.999775, 0.0158178, 0.0141268, -0.00680538, 0.870171, -0.492704],
  "ImageType": [
    "ORIGINAL",
    "PRIMARY",
    "P",
    "MB",
    "ND",
    "MOSAIC"
],
  "ImagingFrequency": 123.259,
  "InPlanePhaseEncodingDirectionDICOM": "COL",
  "InstitutionAddress": "Chemin_Queen-Mary_4565_Montreal_District_CA_H3W_1W5",
  "InstitutionName": "IUGM",
  "InstitutionalDepartmentName": "Department",
  "MRAcquisitionType": "2D",
  "MagneticFieldStrength": 3,
  "Manufacturer": "Siemens",
  "ManufacturersModelName": "Prisma_fit",
  "Modality": "MR",
  "MultibandAccelerationFactor": 4,
  "PartialFourier": 1,
  "PatientPosition": "HFS",
  "PercentPhaseFOV": 100,
  "PhaseEncodingDirection": "j",
  "PhaseEncodingSteps": 104,
  "PhaseResolution": 1,
  "PixelBandwidth": 2290,
  "ProcedureStepDescription": "localizers_retinotopy",
  "ProtocolName": "func_task-wedges",
  "PulseSequenceDetails": "%CustomerSeq%_cmrr_mbep2d_bold",
  "ReceiveCoilActiveElements": "HC1-7;NC1,2",
  "ReceiveCoilName": "HeadNeck_64",
  "ReconMatrixPE": 104,
  "RepetitionTime": 1.49,
  "SAR": 0.0461583,
  "ScanOptions": "FS",
  "ScanningSequence": "EP",
  "SequenceName": "epfid2d1_104",
  "SequenceVariant": "SK_SS",
  "SeriesDescription": "func_task-wedges",
  "SeriesNumber": 11,
  "ShimSetting": [620, -7210, -8862, 311, 29, -152, 23, -18],
  "SliceThickness": 2,
  "SliceTiming": [0, 0.7825, 0.0975, 0.88, 0.195, 0.9775, 0.2925, 1.0775, 0.39, 1.175, 0.4875, 1.2725, 0.5875, 1.37, 0.685, 0, 0.7825, 0.0975, 0.88, 0.195, 0.9775, 0.2925, 1.0775, 0.39, 1.175, 0.4875, 1.2725, 0.5875, 1.37, 0.685, 0, 0.7825, 0.0975, 0.88, 0.195, 0.9775, 0.2925, 1.0775, 0.39, 1.175, 0.4875, 1.2725, 0.5875, 1.37, 0.685, 0, 0.7825, 0.0975, 0.88, 0.195, 0.9775, 0.2925, 1.0775, 0.39, 1.175, 0.4875, 1.2725, 0.5875, 1.37, 0.685],
  "SoftwareVersions": "syngo_MR_E11",
  "SpacingBetweenSlices": 2,
  "StationName": "MRC35049",
  "TaskName": "wedges",
  "TotalReadoutTime": 0.0576811,
  "TxRefAmp": 265.896,
  "WipMemBlock": "307a8b60-3f32-4d3c-83f5-f8796d7716d0||Sequence: R016 ve11c/master r/e634e98; Dec 19 2017 11:00:25 by eja",
  "dcmmeta_affine": [
    [-1.999550223350525, -0.013610757887363434, 0.04017236456274986, 107.3576889038086],
    [-0.031635552644729614, 1.7403411865234375, -0.9849933385848999, -50.70911407470703],
    [0.02825355716049671, 0.9854072332382202, 1.7401649951934814, -88.62406158447266],
    [0.0, 0.0, 0.0, 1.0]
],
  "dcmmeta_reorient_transform": [
    [0.0, -1.0, 0.0, 103.0],
    [1.0, 0.0, 0.0, 0.0],
    [0.0, 0.0, 1.0, 0.0],
    [0.0, 0.0, 0.0, 1.0]
],
  "dcmmeta_shape": [104, 104, 60, 202],
  "dcmmeta_slice_dim": 2,
  "dcmmeta_version": 0.6,
  "global": {
    "const": {
      "AcquisitionMatrix": [104, 0, 0, 104],
      "AngioFlag": "N",
      "BitsAllocated": 16,
      "BitsStored": 16,
      "BodyPartExamined": "BRAIN",
      "Columns": 832,
      "EchoNumbers": 1,
      "EchoTime": 37.0,
      "EchoTrainLength": 104,
      "FlipAngle": 52.0,
      "HighBit": 15,
      "ImageOrientationPatient": [0.99977509075156, 0.01581777604641, 0.01412677860124, -0.0068053787509, 0.87017057101231, -0.4927036271068],
      "ImagePositionPatient": [-828.83773223307, -773.54554114202, 361.27682906987],
      "ImageType": [
        "ORIGINAL",
        "PRIMARY",
        "P",
        "MB",
        "ND",
        "MOSAIC"
],
      "ImagedNucleus": "1H",
      "ImagingFrequency": 123.258929,
      "InPlanePhaseEncodingDirection": "COL",
      "LargestImagePixelValue": 4095,
      "MRAcquisitionType": "2D",
      "MagneticFieldStrength": 3.0,
      "Manufacturer": "SIEMENS",
      "ManufacturerModelName": "Prisma_fit",
      "Modality": "MR",
      "NumberOfAverages": 1.0,
      "NumberOfPhaseEncodingSteps": 104,
      "PercentPhaseFieldOfView": 100.0,
      "PercentSampling": 100.0,
      "PerformedProcedureStepStartTime": "112412.315000",
      "PhotometricInterpretation": "MONOCHROME2",
      "PixelBandwidth": 2290.0,
      "PixelRepresentation": 0,
      "PixelSpacing": [2.0, 2.0],
      "ProtocolName": "func_task-wedges",
      "RepetitionTime": 1490.0,
      "RescaleIntercept": -4096.0,
      "RescaleSlope": 2.0,
      "RescaleType": "US",
      "Rows": 832,
      "SAR": 0.04615826675399,
      "SamplesPerPixel": 1,
      "ScanOptions": "FS",
      "ScanningSequence": "EP",
      "SequenceName": "epfid2d1_104",
      "SequenceVariant": [
        "SK",
        "SS"
],
      "SeriesDescription": "func_task-wedges",
      "SeriesNumber": 11,
      "SeriesTime": "112903.978000",
      "SliceLocation": -49.979771879446,
      "SliceThickness": 2.0,
      "SmallestImagePixelValue": 0,
      "SoftwareVersions": "syngo MR E11",
      "SpacingBetweenSlices": 2.0000000194257,
      "SpecificCharacterSet": "ISO_IR 100",
      "StudyID": "1",
      "StudyTime": "112412.248000",
      "TransmitCoilName": "Body",
      "VariableFlipAngleFlag": "N",
      "WindowCenterWidthExplanation": "Algo1",
      "dBdt": 0.0},
    "slices": {}
  },
  "time": {
    "samples": {
      "AcquisitionNumber": [1, 2, 3, 4, 5, 6, 7, 8, 9, 10, 11, 12, 13, 14, 15, 16, 17, 18, 19, 20, 21, 22, 23, 24, 25, 26, 27, 28, 29, 30, 31, 32, 33, 34, 35, 36, 37, 38, 39, 40, 41, 42, 43, 44, 45, 46, 47, 48, 49, 50, 51, 52, 53, 54, 55, 56, 57, 58, 59, 60, 61, 62, 63, 64, 65, 66, 67, 68, 69, 70, 71, 72, 73, 74, 75, 76, 77, 78, 79, 80, 81, 82, 83, 84, 85, 86, 87, 88, 89, 90, 91, 92, 93, 94, 95, 96, 97, 98, 99, 100, 101, 102, 103, 104, 105, 106, 107, 108, 109, 110, 111, 112, 113, 114, 115, 116, 117, 118, 119, 120, 121, 122, 123, 124, 125, 126, 127, 128, 129, 130, 131, 132, 133, 134, 135, 136, 137, 138, 139, 140, 141, 142, 143, 144, 145, 146, 147, 148, 149, 150, 151, 152, 153, 154, 155, 156, 157, 158, 159, 160, 161, 162, 163, 164, 165, 166, 167, 168, 169, 170, 171, 172, 173, 174, 175, 176, 177, 178, 179, 180, 181, 182, 183, 184, 185, 186, 187, 188, 189, 190, 191, 192, 193, 194, 195, 196, 197, 198, 199, 200, 201, 202],
      "AcquisitionTime": ["112739.035000", "112740.525000", "112742.015000", "112743.505000", "112744.995000", "112746.485000", "112747.975000", "112749.465000", "112750.955000", "112752.445000", "112753.935000", "112755.425000", "112756.915000", "112758.405000", "112759.895000", "112801.385000", "112802.875000", "112804.365000", "112805.855000", "112807.345000", "112808.835000", "112810.325000", "112811.815000", "112813.305000", "112814.795000", "112816.285000", "112817.775000", "112819.265000", "112820.755000", "112822.245000", "112823.735000", "112825.225000", "112826.715000", "112828.205000", "112829.695000", "112831.185000", "112832.675000", "112834.165000", "112835.655000", "112837.145000", "112838.635000", "112840.125000", "112841.615000", "112843.105000", "112844.595000", "112846.085000", "112847.575000", "112849.065000", "112850.555000", "112852.045000", "112853.535000", "112855.025000", "112856.515000", "112858.005000", "112859.495000", "112900.985000", "112902.475000", "112903.965000", "112905.455000", "112906.945000", "112908.435000", "112909.925000", "112911.415000", "112912.905000", "112914.395000", "112915.885000", "112917.375000", "112918.865000", "112920.355000", "112921.845000", "112923.335000", "112924.825000", "112926.315000", "112927.805000", "112929.295000", "112930.785000", "112932.275000", "112933.765000", "112935.255000", "112936.745000", "112938.235000", "112939.725000", "112941.215000", "112942.705000", "112944.195000", "112945.685000", "112947.175000", "112948.665000", "112950.155000", "112951.645000", "112953.135000", "112954.625000", "112956.115000", "112957.605000", "112959.095000", "113000.585000", "113002.075000", "113003.565000", "113005.055000", "113006.545000", "113008.035000", "113009.525000", "113011.015000", "113012.505000", "113013.995000", "113015.485000", "113016.975000", "113018.465000", "113019.955000", "113021.445000", "113022.935000", "113024.425000", "113025.915000", "113027.405000", "113028.895000", "113030.385000", "113031.875000", "113033.365000", "113034.855000", "113036.345000", "113037.835000", "113039.325000", "113040.815000", "113042.305000", "113043.795000", "113045.285000", "113046.775000", "113048.265000", "113049.755000", "113051.245000", "113052.735000", "113054.225000", "113055.715000", "113057.205000", "113058.695000", "113100.185000", "113101.675000", "113103.165000", "113104.655000", "113106.145000", "113107.635000", "113109.125000", "113110.615000", "113112.105000", "113113.595000", "113115.085000", "113116.575000", "113118.065000", "113119.555000", "113121.045000", "113122.535000", "113124.025000", "113125.515000", "113127.005000", "113128.495000", "113129.985000", "113131.475000", "113132.965000", "113134.455000", "113135.945000", "113137.435000", "113138.925000", "113140.415000", "113141.905000", "113143.395000", "113144.885000", "113146.375000", "113147.865000", "113149.355000", "113150.845000", "113152.335000", "113153.825000", "113155.315000", "113156.805000", "113158.295000", "113159.785000", "113201.275000", "113202.765000", "113204.255000", "113205.745000", "113207.235000", "113208.725000", "113210.215000", "113211.705000", "113213.195000", "113214.685000", "113216.175000", "113217.665000", "113219.155000", "113220.645000", "113222.135000", "113223.625000", "113225.115000", "113226.605000", "113228.095000", "113229.585000", "113231.075000", "113232.565000", "113234.055000", "113235.545000", "113237.035000", "113238.525000"],
      "ContentTime": ["112903.980000", "112903.983000", "112903.985000", "112903.988000", "112903.990000", "112903.993000", "112903.995000", "112903.998000", "112904.001000", "112904.004000", "112904.006000", "112904.009000", "112904.011000", "112904.022000", "112904.024000", "112904.027000", "112904.029000", "112904.032000", "112904.034000", "112904.037000", "112904.039000", "112904.042000", "112904.045000", "112904.047000", "112904.049000", "112904.052000", "112904.055000", "112904.057000", "112904.060000", "112904.062000", "112904.065000", "112923.874000", "112923.877000", "112923.879000", "112923.882000", "112923.884000", "112923.887000", "112923.890000", "112923.892000", "112923.895000", "112923.897000", "112923.900000", "112923.902000", "112923.905000", "112923.908000", "112923.910000", "112923.913000", "112923.915000", "112923.918000", "112923.920000", "112923.923000", "112943.868000", "112943.870000", "112943.873000", "112943.875000", "112943.878000", "112943.880000", "112943.883000", "112943.885000", "112943.888000", "112943.891000", "112943.893000", "112943.896000", "112943.899000", "112943.901000", "112943.904000", "112943.906000", "112943.909000", "112943.912000", "112943.914000", "112943.917000", "112943.919000", "113003.862000", "113003.865000", "113003.868000", "113003.871000", "113003.874000", "113003.876000", "113003.879000", "113003.882000", "113003.884000", "113003.886000", "113003.889000", "113003.892000", "113003.894000", "113003.897000", "113003.899000", "113003.902000", "113003.904000", "113003.907000", "113003.909000", "113003.912000", "113043.922000", "113043.924000", "113043.927000", "113043.929000", "113043.932000", "113043.935000", "113043.937000", "113043.940000", "113043.942000", "113043.945000", "113043.947000", "113043.950000", "113043.952000", "113043.955000", "113043.957000", "113043.960000", "113043.962000", "113043.965000", "113043.967000", "113043.970000", "113043.972000", "113043.975000", "113043.977000", "113043.980000", "113043.983000", "113043.985000", "113043.988000", "113043.990000", "113043.993000", "113043.996000", "113043.998000", "113123.932000", "113123.935000", "113123.937000", "113123.940000", "113123.942000", "113123.945000", "113123.948000", "113123.950000", "113123.953000", "113123.955000", "113123.958000", "113123.960000", "113123.963000", "113123.965000", "113123.968000", "113123.971000", "113123.973000", "113123.976000", "113123.978000", "113123.981000", "113123.983000", "113123.986000", "113123.988000", "113123.991000", "113123.993000", "113123.996000", "113124.000000", "113203.897000", "113203.900000", "113203.902000", "113203.905000", "113203.907000", "113203.910000", "113203.912000", "113203.915000", "113203.918000", "113203.920000", "113203.923000", "113203.925000", "113203.928000", "113203.930000", "113203.933000", "113203.935000", "113203.938000", "113203.940000", "113203.943000", "113203.945000", "113203.948000", "113203.951000", "113203.953000", "113203.956000", "113203.958000", "113203.961000", "113203.963000", "113240.575000", "113240.578000", "113240.581000", "113240.583000", "113240.586000", "113240.588000", "113240.591000", "113240.593000", "113240.596000", "113240.599000", "113240.601000", "113240.604000", "113240.606000", "113240.609000", "113240.611000", "113240.614000", "113240.616000", "113240.619000", "113240.621000", "113240.624000", "113240.626000", "113240.629000", "113240.632000", "113240.634000", "113240.637000"],
      "InstanceCreationTime": ["112903.980000", "112903.983000", "112903.985000", "112903.988000", "112903.990000", "112903.993000", "112903.995000", "112903.998000", "112904.001000", "112904.004000", "112904.006000", "112904.009000", "112904.011000", "112904.022000", "112904.024000", "112904.027000", "112904.029000", "112904.032000", "112904.034000", "112904.037000", "112904.039000", "112904.042000", "112904.045000", "112904.047000", "112904.049000", "112904.052000", "112904.055000", "112904.057000", "112904.060000", "112904.062000", "112904.065000", "112923.874000", "112923.877000", "112923.879000", "112923.882000", "112923.884000", "112923.887000", "112923.890000", "112923.892000", "112923.895000", "112923.897000", "112923.900000", "112923.902000", "112923.905000", "112923.908000", "112923.910000", "112923.913000", "112923.915000", "112923.918000", "112923.920000", "112923.923000", "112943.868000", "112943.870000", "112943.873000", "112943.875000", "112943.878000", "112943.880000", "112943.883000", "112943.885000", "112943.888000", "112943.891000", "112943.893000", "112943.896000", "112943.899000", "112943.901000", "112943.904000", "112943.906000", "112943.909000", "112943.912000", "112943.914000", "112943.917000", "112943.919000", "113003.862000", "113003.865000", "113003.868000", "113003.871000", "113003.874000", "113003.876000", "113003.879000", "113003.882000", "113003.884000", "113003.886000", "113003.889000", "113003.892000", "113003.894000", "113003.897000", "113003.899000", "113003.902000", "113003.904000", "113003.907000", "113003.909000", "113003.912000", "113043.922000", "113043.924000", "113043.927000", "113043.929000", "113043.932000", "113043.935000", "113043.937000", "113043.940000", "113043.942000", "113043.945000", "113043.947000", "113043.950000", "113043.952000", "113043.955000", "113043.957000", "113043.960000", "113043.962000", "113043.965000", "113043.967000", "113043.970000", "113043.972000", "113043.975000", "113043.977000", "113043.980000", "113043.983000", "113043.985000", "113043.988000", "113043.990000", "113043.993000", "113043.996000", "113043.998000", "113123.932000", "113123.935000", "113123.937000", "113123.940000", "113123.942000", "113123.945000", "113123.948000", "113123.950000", "113123.953000", "113123.955000", "113123.958000", "113123.960000", "113123.963000", "113123.965000", "113123.968000", "113123.971000", "113123.973000", "113123.976000", "113123.978000", "113123.981000", "113123.983000", "113123.986000", "113123.988000", "113123.991000", "113123.993000", "113123.996000", "113124.000000", "113203.897000", "113203.900000", "113203.902000", "113203.905000", "113203.907000", "113203.910000", "113203.912000", "113203.915000", "113203.918000", "113203.920000", "113203.923000", "113203.925000", "113203.928000", "113203.930000", "113203.933000", "113203.935000", "113203.938000", "113203.940000", "113203.943000", "113203.945000", "113203.948000", "113203.951000", "113203.953000", "113203.956000", "113203.958000", "113203.961000", "113203.963000", "113240.575000", "113240.578000", "113240.581000", "113240.583000", "113240.586000", "113240.588000", "113240.591000", "113240.593000", "113240.596000", "113240.599000", "113240.601000", "113240.604000", "113240.606000", "113240.609000", "113240.611000", "113240.614000", "113240.616000", "113240.619000", "113240.621000", "113240.624000", "113240.626000", "113240.629000", "113240.632000", "113240.634000", "113240.637000"],
      "InstanceNumber": [1, 2, 3, 4, 5, 6, 7, 8, 9, 10, 11, 12, 13, 14, 15, 16, 17, 18, 19, 20, 21, 22, 23, 24, 25, 26, 27, 28, 29, 30, 31, 32, 33, 34, 35, 36, 37, 38, 39, 40, 41, 42, 43, 44, 45, 46, 47, 48, 49, 50, 51, 52, 53, 54, 55, 56, 57, 58, 59, 60, 61, 62, 63, 64, 65, 66, 67, 68, 69, 70, 71, 72, 73, 74, 75, 76, 77, 78, 79, 80, 81, 82, 83, 84, 85, 86, 87, 88, 89, 90, 91, 92, 93, 94, 95, 96, 97, 98, 99, 100, 101, 102, 103, 104, 105, 106, 107, 108, 109, 110, 111, 112, 113, 114, 115, 116, 117, 118, 119, 120, 121, 122, 123, 124, 125, 126, 127, 128, 129, 130, 131, 132, 133, 134, 135, 136, 137, 138, 139, 140, 141, 142, 143, 144, 145, 146, 147, 148, 149, 150, 151, 152, 153, 154, 155, 156, 157, 158, 159, 160, 161, 162, 163, 164, 165, 166, 167, 168, 169, 170, 171, 172, 173, 174, 175, 176, 177, 178, 179, 180, 181, 182, 183, 184, 185, 186, 187, 188, 189, 190, 191, 192, 193, 194, 195, 196, 197, 198, 199, 200, 201, 202],
      "WindowCenter": [4888.0, 4890.0, 4890.0, 4890.0, 4868.0, 4862.0, 4862.0, 4864.0, 4886.0, 4886.0, 4880.0, 4882.0, 4884.0, 4860.0, 4832.0, 4828.0, 4826.0, 4858.0, 4864.0, 4890.0, 4856.0, 4854.0, 4854.0, 4882.0, 4884.0, 4884.0, 4890.0, 4862.0, 4862.0, 4866.0, 4890.0, 4886.0, 4888.0, 4886.0, 4858.0, 4858.0, 4864.0, 4864.0, 4868.0, 4886.0, 4884.0, 4860.0, 4862.0, 4868.0, 4862.0, 4862.0, 4890.0, 4864.0, 4890.0, 4886.0, 4880.0, 4858.0, 4884.0, 4886.0, 4892.0, 4864.0, 4828.0, 4828.0, 4852.0, 4864.0, 4882.0, 4858.0, 4860.0, 4876.0, 4856.0, 4880.0, 4862.0, 4886.0, 4862.0, 4866.0, 4860.0, 4864.0, 4888.0, 4882.0, 4858.0, 4882.0, 4856.0, 4860.0, 4888.0, 4862.0, 4862.0, 4858.0, 4888.0, 4882.0, 4858.0, 4856.0, 4856.0, 4884.0, 4886.0, 4862.0, 4864.0, 4888.0, 4866.0, 4858.0, 4888.0, 4882.0, 4884.0, 4860.0, 4864.0, 4864.0, 4884.0, 4884.0, 4884.0, 4884.0, 4862.0, 4884.0, 4884.0, 4862.0, 4886.0, 4886.0, 4864.0, 4886.0, 4886.0, 4884.0, 4862.0, 4884.0, 4886.0, 4862.0, 4884.0, 4862.0, 4884.0, 4886.0, 4862.0, 4862.0, 4862.0, 4864.0, 4886.0, 4882.0, 4860.0, 4880.0, 4860.0, 4862.0, 4866.0, 4858.0, 4858.0, 4858.0, 4884.0, 4858.0, 4852.0, 4852.0, 4856.0, 4882.0, 4882.0, 4864.0, 4860.0, 4858.0, 4866.0, 4888.0, 4886.0, 4882.0, 4862.0, 4884.0, 4886.0, 4882.0, 4854.0, 4862.0, 4884.0, 4862.0, 4890.0, 4886.0, 4864.0, 4890.0, 4864.0, 4864.0, 4890.0, 4882.0, 4886.0, 4888.0, 4888.0, 4886.0, 4882.0, 4886.0, 4888.0, 4892.0, 4862.0, 4890.0, 4864.0, 4890.0, 4866.0, 4886.0, 4884.0, 4882.0, 4886.0, 4882.0, 4886.0, 4886.0, 4886.0, 4886.0, 4888.0, 4886.0, 4888.0, 4864.0, 4866.0, 4884.0, 4878.0, 4858.0, 4886.0, 4890.0, 4862.0, 4890.0, 4918.0, 4912.0],
      "WindowWidth": [18656.0, 18658.0, 18660.0, 18658.0, 18630.0, 18626.0, 18628.0, 18628.0, 18662.0, 18660.0, 18646.0, 18648.0, 18646.0, 18616.0, 18586.0, 18580.0, 18582.0, 18618.0, 18628.0, 18658.0, 18622.0, 18620.0, 18614.0, 18646.0, 18662.0, 18662.0, 18664.0, 18636.0, 18630.0, 18634.0, 18642.0, 18648.0, 18650.0, 18662.0, 18628.0, 18628.0, 18626.0, 18628.0, 18636.0, 18650.0, 18654.0, 18622.0, 18628.0, 18626.0, 18630.0, 18628.0, 18662.0, 18636.0, 18670.0, 18654.0, 18648.0, 18626.0, 18658.0, 18650.0, 18650.0, 18632.0, 18584.0, 18588.0, 18622.0, 18630.0, 18658.0, 18628.0, 18630.0, 18650.0, 18624.0, 18650.0, 18622.0, 18662.0, 18630.0, 18632.0, 18626.0, 18634.0, 18670.0, 18650.0, 18628.0, 18656.0, 18618.0, 18624.0, 18662.0, 18638.0, 18630.0, 18630.0, 18664.0, 18656.0, 18628.0, 18614.0, 18624.0, 18654.0, 18656.0, 18632.0, 18636.0, 18658.0, 18636.0, 18636.0, 18656.0, 18650.0, 18654.0, 18638.0, 18630.0, 18630.0, 18656.0, 18666.0, 18658.0, 18656.0, 18632.0, 18656.0, 18660.0, 18638.0, 18658.0, 18664.0, 18636.0, 18658.0, 18664.0, 18666.0, 18630.0, 18658.0, 18666.0, 18624.0, 18662.0, 18628.0, 18666.0, 18662.0, 18632.0, 18636.0, 18634.0, 18634.0, 18648.0, 18654.0, 18618.0, 18640.0, 18630.0, 18634.0, 18636.0, 18638.0, 18626.0, 18632.0, 18662.0, 18626.0, 18618.0, 18614.0, 18624.0, 18660.0, 18654.0, 18632.0, 18634.0, 18636.0, 18634.0, 18666.0, 18660.0, 18658.0, 18634.0, 18662.0, 18668.0, 18660.0, 18622.0, 18628.0, 18650.0, 18630.0, 18664.0, 18660.0, 18638.0, 18664.0, 18634.0, 18640.0, 18664.0, 18658.0, 18664.0, 18662.0, 18662.0, 18652.0, 18644.0, 18660.0, 18650.0, 18660.0, 18630.0, 18654.0, 18634.0, 18662.0, 18634.0, 18664.0, 18652.0, 18658.0, 18660.0, 18654.0, 18666.0, 18662.0, 18656.0, 18672.0, 18664.0, 18658.0, 18672.0, 18628.0, 18636.0, 18652.0, 18644.0, 18620.0, 18664.0, 18658.0, 18630.0, 18656.0, 18678.0, 18678.0]
    },
    "slices": {}
  }
}