{
  "AcquisitionMatrixPE": 104,
  "AcquisitionNumber": 1,
  "AcquisitionTime": "11:34:4.995000",
  "BandwidthPerPixelPhaseEncode": 17.17,
  "BaseResolution": 104,
  "BodyPartExamined": "BRAIN",
  "CoilString": "HC1-7;NC1_2",
  "ConsistencyInfo": "N4_VE11C_LATEST_20160120",
  "ConversionSoftware": "dcm2niix",
  "ConversionSoftwareVersion": "v1.0.20190902",
  "DerivedVendorReportedEchoSpacing": 0.000560011,
  "DeviceSerialNumber": "167006",
  "DwellTime": 2.1e-06,
  "EchoTime": 0.037,
  "EchoTrainLength": 104,
  "EffectiveEchoSpacing": 0.000560011,
  "FlipAngle": 52,
  "ImageComments": "Unaliased_MB4_PE3_LB",
  "ImageOrientationPatientDICOM": [0.999775, 0.0158178, 0.0141268, -0.00680538, 0.870171, -0.492704],
  "ImageType": [
    "ORIGINAL",
    "PRIMARY",
    "P",
    "MB",
    "ND",
    "MOSAIC"
],
  "ImagingFrequency": 123.259,
  "InPlanePhaseEncodingDirectionDICOM": "COL",
  "InstitutionAddress": "Chemin_Queen-Mary_4565_Montreal_District_CA_H3W_1W5",
  "InstitutionName": "IUGM",
  "InstitutionalDepartmentName": "Department",
  "MRAcquisitionType": "2D",
  "MagneticFieldStrength": 3,
  "Manufacturer": "Siemens",
  "ManufacturersModelName": "Prisma_fit",
  "Modality": "MR",
  "MultibandAccelerationFactor": 4,
  "PartialFourier": 1,
  "PatientPosition": "HFS",
  "PercentPhaseFOV": 100,
  "PhaseEncodingDirection": "j",
  "PhaseEncodingSteps": 104,
  "PhaseResolution": 1,
  "PixelBandwidth": 2290,
  "ProcedureStepDescription": "localizers_retinotopy",
  "ProtocolName": "func_task-rings",
  "PulseSequenceDetails": "%CustomerSeq%_cmrr_mbep2d_bold",
  "ReceiveCoilActiveElements": "HC1-7;NC1,2",
  "ReceiveCoilName": "HeadNeck_64",
  "ReconMatrixPE": 104,
  "RepetitionTime": 1.49,
  "SAR": 0.0461583,
  "ScanOptions": "FS",
  "ScanningSequence": "EP",
  "SequenceName": "epfid2d1_104",
  "SequenceVariant": "SK_SS",
  "SeriesDescription": "func_task-rings",
  "SeriesNumber": 14,
  "ShimSetting": [620, -7210, -8862, 311, 29, -152, 23, -18],
  "SliceThickness": 2,
  "SliceTiming": [0, 0.785, 0.1, 0.8825, 0.1975, 0.98, 0.295, 1.08, 0.3925, 1.1775, 0.49, 1.275, 0.59, 1.3725, 0.6875, 0, 0.785, 0.1, 0.8825, 0.1975, 0.98, 0.295, 1.08, 0.3925, 1.1775, 0.49, 1.275, 0.59, 1.3725, 0.6875, 0, 0.785, 0.1, 0.8825, 0.1975, 0.98, 0.295, 1.08, 0.3925, 1.1775, 0.49, 1.275, 0.59, 1.3725, 0.6875, 0, 0.785, 0.1, 0.8825, 0.1975, 0.98, 0.295, 1.08, 0.3925, 1.1775, 0.49, 1.275, 0.59, 1.3725, 0.6875],
  "SoftwareVersions": "syngo_MR_E11",
  "SpacingBetweenSlices": 2,
  "StationName": "MRC35049",
  "TaskName": "rings",
  "TotalReadoutTime": 0.0576811,
  "TxRefAmp": 265.896,
  "WipMemBlock": "80e4e76d-6e26-4488-888b-9c06f50007bc||Sequence: R016 ve11c/master r/e634e98; Dec 19 2017 11:00:25 by eja",
  "dcmmeta_affine": [
    [-1.999550223350525, -0.013610757887363434, 0.04017236456274986, 107.3576889038086],
    [-0.031635552644729614, 1.7403411865234375, -0.9849933385848999, -50.70911407470703],
    [0.02825355716049671, 0.9854072332382202, 1.7401649951934814, -88.62406158447266],
    [0.0, 0.0, 0.0, 1.0]
],
  "dcmmeta_reorient_transform": [
    [0.0, -1.0, 0.0, 103.0],
    [1.0, 0.0, 0.0, 0.0],
    [0.0, 0.0, 1.0, 0.0],
    [0.0, 0.0, 0.0, 1.0]
],
  "dcmmeta_shape": [104, 104, 60, 202],
  "dcmmeta_slice_dim": 2,
  "dcmmeta_version": 0.6,
  "global": {
    "const": {
      "AcquisitionMatrix": [104, 0, 0, 104],
      "AngioFlag": "N",
      "BitsAllocated": 16,
      "BitsStored": 16,
      "BodyPartExamined": "BRAIN",
      "Columns": 832,
      "EchoNumbers": 1,
      "EchoTime": 37.0,
      "EchoTrainLength": 104,
      "FlipAngle": 52.0,
      "HighBit": 15,
      "ImageOrientationPatient": [0.99977509075156, 0.01581777604641, 0.01412677860124, -0.0068053787509, 0.87017057101231, -0.4927036271068],
      "ImagePositionPatient": [-828.83773223307, -773.54554114202, 361.27682906987],
      "ImageType": [
        "ORIGINAL",
        "PRIMARY",
        "P",
        "MB",
        "ND",
        "MOSAIC"
],
      "ImagedNucleus": "1H",
      "ImagingFrequency": 123.258936,
      "InPlanePhaseEncodingDirection": "COL",
      "LargestImagePixelValue": 4095,
      "MRAcquisitionType": "2D",
      "MagneticFieldStrength": 3.0,
      "Manufacturer": "SIEMENS",
      "ManufacturerModelName": "Prisma_fit",
      "Modality": "MR",
      "NumberOfAverages": 1.0,
      "NumberOfPhaseEncodingSteps": 104,
      "PercentPhaseFieldOfView": 100.0,
      "PercentSampling": 100.0,
      "PerformedProcedureStepStartTime": "112412.315000",
      "PhotometricInterpretation": "MONOCHROME2",
      "PixelBandwidth": 2290.0,
      "PixelRepresentation": 0,
      "PixelSpacing": [2.0, 2.0],
      "ProtocolName": "func_task-rings",
      "RepetitionTime": 1490.0,
      "RescaleIntercept": -4096.0,
      "RescaleSlope": 2.0,
      "RescaleType": "US",
      "Rows": 832,
      "SAR": 0.04615826675399,
      "SamplesPerPixel": 1,
      "ScanOptions": "FS",
      "ScanningSequence": "EP",
      "SequenceName": "epfid2d1_104",
      "SequenceVariant": [
        "SK",
        "SS"
],
      "SeriesDescription": "func_task-rings",
      "SeriesNumber": 14,
      "SeriesTime": "113538.569000",
      "SliceLocation": -49.979771879446,
      "SliceThickness": 2.0,
      "SmallestImagePixelValue": 0,
      "SoftwareVersions": "syngo MR E11",
      "SpacingBetweenSlices": 2.0000000194257,
      "SpecificCharacterSet": "ISO_IR 100",
      "StudyID": "1",
      "StudyTime": "112412.248000",
      "TransmitCoilName": "Body",
      "VariableFlipAngleFlag": "N",
      "WindowCenterWidthExplanation": "Algo1",
      "dBdt": 0.0},
    "slices": {}
  },
  "time": {
    "samples": {
      "AcquisitionNumber": [1, 2, 3, 4, 5, 6, 7, 8, 9, 10, 11, 12, 13, 14, 15, 16, 17, 18, 19, 20, 21, 22, 23, 24, 25, 26, 27, 28, 29, 30, 31, 32, 33, 34, 35, 36, 37, 38, 39, 40, 41, 42, 43, 44, 45, 46, 47, 48, 49, 50, 51, 52, 53, 54, 55, 56, 57, 58, 59, 60, 61, 62, 63, 64, 65, 66, 67, 68, 69, 70, 71, 72, 73, 74, 75, 76, 77, 78, 79, 80, 81, 82, 83, 84, 85, 86, 87, 88, 89, 90, 91, 92, 93, 94, 95, 96, 97, 98, 99, 100, 101, 102, 103, 104, 105, 106, 107, 108, 109, 110, 111, 112, 113, 114, 115, 116, 117, 118, 119, 120, 121, 122, 123, 124, 125, 126, 127, 128, 129, 130, 131, 132, 133, 134, 135, 136, 137, 138, 139, 140, 141, 142, 143, 144, 145, 146, 147, 148, 149, 150, 151, 152, 153, 154, 155, 156, 157, 158, 159, 160, 161, 162, 163, 164, 165, 166, 167, 168, 169, 170, 171, 172, 173, 174, 175, 176, 177, 178, 179, 180, 181, 182, 183, 184, 185, 186, 187, 188, 189, 190, 191, 192, 193, 194, 195, 196, 197, 198, 199, 200, 201, 202],
      "AcquisitionTime": ["113404.995000", "113406.485000", "113407.975000", "113409.465000", "113410.955000", "113412.445000", "113413.935000", "113415.425000", "113416.915000", "113418.405000", "113419.895000", "113421.385000", "113422.875000", "113424.365000", "113425.855000", "113427.345000", "113428.835000", "113430.325000", "113431.815000", "113433.305000", "113434.795000", "113436.285000", "113437.775000", "113439.265000", "113440.755000", "113442.245000", "113443.735000", "113445.225000", "113446.715000", "113448.205000", "113449.695000", "113451.185000", "113452.675000", "113454.165000", "113455.655000", "113457.145000", "113458.635000", "113500.125000", "113501.615000", "113503.105000", "113504.595000", "113506.085000", "113507.575000", "113509.065000", "113510.555000", "113512.045000", "113513.535000", "113515.025000", "113516.515000", "113518.005000", "113519.495000", "113520.985000", "113522.475000", "113523.965000", "113525.455000", "113526.945000", "113528.435000", "113529.925000", "113531.415000", "113532.905000", "113534.395000", "113535.885000", "113537.375000", "113538.865000", "113540.355000", "113541.845000", "113543.335000", "113544.825000", "113546.315000", "113547.805000", "113549.295000", "113550.785000", "113552.275000", "113553.765000", "113555.255000", "113556.745000", "113558.235000", "113559.725000", "113601.215000", "113602.705000", "113604.195000", "113605.685000", "113607.175000", "113608.665000", "113610.155000", "113611.645000", "113613.135000", "113614.625000", "113616.115000", "113617.605000", "113619.095000", "113620.585000", "113622.075000", "113623.565000", "113625.055000", "113626.545000", "113628.035000", "113629.525000", "113631.015000", "113632.505000", "113633.995000", "113635.485000", "113636.975000", "113638.465000", "113639.955000", "113641.445000", "113642.935000", "113644.425000", "113645.915000", "113647.405000", "113648.895000", "113650.385000", "113651.875000", "113653.365000", "113654.855000", "113656.345000", "113657.835000", "113659.325000", "113700.815000", "113702.305000", "113703.795000", "113705.285000", "113706.775000", "113708.265000", "113709.755000", "113711.245000", "113712.735000", "113714.225000", "113715.715000", "113717.205000", "113718.695000", "113720.185000", "113721.675000", "113723.165000", "113724.655000", "113726.145000", "113727.635000", "113729.125000", "113730.615000", "113732.105000", "113733.595000", "113735.085000", "113736.575000", "113738.065000", "113739.555000", "113741.045000", "113742.535000", "113744.025000", "113745.515000", "113747.005000", "113748.495000", "113749.985000", "113751.475000", "113752.965000", "113754.455000", "113755.945000", "113757.435000", "113758.925000", "113800.415000", "113801.905000", "113803.395000", "113804.885000", "113806.375000", "113807.865000", "113809.355000", "113810.845000", "113812.335000", "113813.825000", "113815.315000", "113816.805000", "113818.295000", "113819.785000", "113821.275000", "113822.765000", "113824.255000", "113825.745000", "113827.235000", "113828.725000", "113830.215000", "113831.705000", "113833.195000", "113834.685000", "113836.175000", "113837.665000", "113839.155000", "113840.645000", "113842.135000", "113843.625000", "113845.115000", "113846.605000", "113848.095000", "113849.585000", "113851.075000", "113852.565000", "113854.055000", "113855.545000", "113857.035000", "113858.525000", "113900.015000", "113901.505000", "113902.995000", "113904.485000"],
      "ContentTime": ["113538.571000", "113538.574000", "113538.576000", "113538.579000", "113538.581000", "113538.584000", "113538.586000", "113538.589000", "113538.591000", "113538.594000", "113538.596000", "113538.599000", "113538.601000", "113538.604000", "113538.606000", "113538.609000", "113538.611000", "113538.614000", "113538.616000", "113538.619000", "113538.622000", "113538.624000", "113538.627000", "113538.629000", "113538.632000", "113538.635000", "113538.637000", "113538.640000", "113538.642000", "113538.645000", "113538.647000", "113538.650000", "113538.652000", "113538.655000", "113538.657000", "113538.660000", "113538.662000", "113538.665000", "113538.667000", "113558.465000", "113558.468000", "113558.470000", "113558.473000", "113558.475000", "113558.478000", "113558.480000", "113558.483000", "113558.485000", "113558.488000", "113558.490000", "113558.493000", "113558.496000", "113558.498000", "113558.501000", "113558.503000", "113558.506000", "113558.508000", "113558.511000", "113558.514000", "113618.447000", "113618.450000", "113618.452000", "113618.455000", "113618.457000", "113618.460000", "113618.462000", "113618.465000", "113618.467000", "113618.470000", "113618.472000", "113618.475000", "113618.477000", "113618.480000", "113618.482000", "113618.485000", "113618.487000", "113618.490000", "113618.492000", "113618.495000", "113638.452000", "113638.454000", "113638.457000", "113638.460000", "113638.462000", "113638.465000", "113638.467000", "113638.470000", "113638.472000", "113638.475000", "113638.478000", "113638.480000", "113638.483000", "113638.485000", "113638.488000", "113638.491000", "113638.493000", "113638.496000", "113638.498000", "113638.501000", "113638.503000", "113718.509000", "113718.512000", "113718.514000", "113718.517000", "113718.519000", "113718.522000", "113718.524000", "113718.527000", "113718.529000", "113718.532000", "113718.534000", "113718.537000", "113718.540000", "113718.542000", "113718.545000", "113718.547000", "113718.550000", "113718.552000", "113718.555000", "113718.557000", "113718.560000", "113718.563000", "113718.565000", "113718.568000", "113718.570000", "113718.573000", "113718.575000", "113718.578000", "113718.581000", "113758.472000", "113758.475000", "113758.478000", "113758.480000", "113758.483000", "113758.485000", "113758.488000", "113758.490000", "113758.493000", "113758.495000", "113758.498000", "113758.500000", "113758.503000", "113758.505000", "113758.508000", "113758.511000", "113758.513000", "113758.516000", "113758.520000", "113758.523000", "113758.527000", "113758.530000", "113758.532000", "113758.535000", "113758.538000", "113758.540000", "113838.919000", "113838.922000", "113838.924000", "113838.927000", "113838.929000", "113838.932000", "113838.934000", "113838.937000", "113838.939000", "113838.942000", "113838.944000", "113838.947000", "113838.949000", "113838.952000", "113838.954000", "113838.957000", "113838.959000", "113838.962000", "113838.964000", "113838.967000", "113838.969000", "113838.972000", "113838.974000", "113838.977000", "113838.980000", "113838.983000", "113838.985000", "113907.251000", "113907.254000", "113907.256000", "113907.259000", "113907.261000", "113907.264000", "113907.267000", "113907.269000", "113907.272000", "113907.274000", "113907.277000", "113907.279000", "113907.282000", "113907.284000", "113907.287000", "113907.289000", "113907.292000", "113907.294000", "113907.297000", "113907.300000"],
      "InstanceCreationTime": ["113538.571000", "113538.574000", "113538.576000", "113538.579000", "113538.581000", "113538.584000", "113538.586000", "113538.589000", "113538.591000", "113538.594000", "113538.596000", "113538.599000", "113538.601000", "113538.604000", "113538.606000", "113538.609000", "113538.611000", "113538.614000", "113538.616000", "113538.619000", "113538.622000", "113538.624000", "113538.627000", "113538.629000", "113538.632000", "113538.635000", "113538.637000", "113538.640000", "113538.642000", "113538.645000", "113538.647000", "113538.650000", "113538.652000", "113538.655000", "113538.657000", "113538.660000", "113538.662000", "113538.665000", "113538.667000", "113558.465000", "113558.468000", "113558.470000", "113558.473000", "113558.475000", "113558.478000", "113558.480000", "113558.483000", "113558.485000", "113558.488000", "113558.490000", "113558.493000", "113558.496000", "113558.498000", "113558.501000", "113558.503000", "113558.506000", "113558.508000", "113558.511000", "113558.514000", "113618.447000", "113618.450000", "113618.452000", "113618.455000", "113618.457000", "113618.460000", "113618.462000", "113618.465000", "113618.467000", "113618.470000", "113618.472000", "113618.475000", "113618.477000", "113618.480000", "113618.482000", "113618.485000", "113618.487000", "113618.490000", "113618.492000", "113618.495000", "113638.452000", "113638.454000", "113638.457000", "113638.460000", "113638.462000", "113638.465000", "113638.467000", "113638.470000", "113638.472000", "113638.475000", "113638.478000", "113638.480000", "113638.483000", "113638.485000", "113638.488000", "113638.491000", "113638.493000", "113638.496000", "113638.498000", "113638.501000", "113638.503000", "113718.509000", "113718.512000", "113718.514000", "113718.517000", "113718.519000", "113718.522000", "113718.524000", "113718.527000", "113718.529000", "113718.532000", "113718.534000", "113718.537000", "113718.540000", "113718.542000", "113718.545000", "113718.547000", "113718.550000", "113718.552000", "113718.555000", "113718.557000", "113718.560000", "113718.563000", "113718.565000", "113718.568000", "113718.570000", "113718.573000", "113718.575000", "113718.578000", "113718.581000", "113758.472000", "113758.475000", "113758.478000", "113758.480000", "113758.483000", "113758.485000", "113758.488000", "113758.490000", "113758.493000", "113758.495000", "113758.498000", "113758.500000", "113758.503000", "113758.505000", "113758.508000", "113758.511000", "113758.513000", "113758.516000", "113758.520000", "113758.523000", "113758.527000", "113758.530000", "113758.532000", "113758.535000", "113758.538000", "113758.540000", "113838.919000", "113838.922000", "113838.924000", "113838.927000", "113838.929000", "113838.932000", "113838.934000", "113838.937000", "113838.939000", "113838.942000", "113838.944000", "113838.947000", "113838.949000", "113838.952000", "113838.954000", "113838.957000", "113838.959000", "113838.962000", "113838.964000", "113838.967000", "113838.969000", "113838.972000", "113838.974000", "113838.977000", "113838.980000", "113838.983000", "113838.985000", "113907.251000", "113907.254000", "113907.256000", "113907.259000", "113907.261000", "113907.264000", "113907.267000", "113907.269000", "113907.272000", "113907.274000", "113907.277000", "113907.279000", "113907.282000", "113907.284000", "113907.287000", "113907.289000", "113907.292000", "113907.294000", "113907.297000", "113907.300000"],
      "InstanceNumber": [1, 2, 3, 4, 5, 6, 7, 8, 9, 10, 11, 12, 13, 14, 15, 16, 17, 18, 19, 20, 21, 22, 23, 24, 25, 26, 27, 28, 29, 30, 31, 32, 33, 34, 35, 36, 37, 38, 39, 40, 41, 42, 43, 44, 45, 46, 47, 48, 49, 50, 51, 52, 53, 54, 55, 56, 57, 58, 59, 60, 61, 62, 63, 64, 65, 66, 67, 68, 69, 70, 71, 72, 73, 74, 75, 76, 77, 78, 79, 80, 81, 82, 83, 84, 85, 86, 87, 88, 89, 90, 91, 92, 93, 94, 95, 96, 97, 98, 99, 100, 101, 102, 103, 104, 105, 106, 107, 108, 109, 110, 111, 112, 113, 114, 115, 116, 117, 118, 119, 120, 121, 122, 123, 124, 125, 126, 127, 128, 129, 130, 131, 132, 133, 134, 135, 136, 137, 138, 139, 140, 141, 142, 143, 144, 145, 146, 147, 148, 149, 150, 151, 152, 153, 154, 155, 156, 157, 158, 159, 160, 161, 162, 163, 164, 165, 166, 167, 168, 169, 170, 171, 172, 173, 174, 175, 176, 177, 178, 179, 180, 181, 182, 183, 184, 185, 186, 187, 188, 189, 190, 191, 192, 193, 194, 195, 196, 197, 198, 199, 200, 201, 202],
      "WindowCenter": [4820.0, 4794.0, 4826.0, 4864.0, 4862.0, 4828.0, 4788.0, 4756.0, 4782.0, 4782.0, 4786.0, 4792.0, 4826.0, 4860.0, 4862.0, 4858.0, 4822.0, 4792.0, 4784.0, 4786.0, 4784.0, 4794.0, 4830.0, 4828.0, 4820.0, 4792.0, 4796.0, 4794.0, 4796.0, 4824.0, 4794.0, 4792.0, 4792.0, 4794.0, 4790.0, 4828.0, 4854.0, 4824.0, 4794.0, 4794.0, 4794.0, 4790.0, 4790.0, 4792.0, 4792.0, 4820.0, 4824.0, 4822.0, 4830.0, 4822.0, 4790.0, 4790.0, 4790.0, 4824.0, 4860.0, 4800.0, 4794.0, 4792.0, 4788.0, 4790.0, 4794.0, 4794.0, 4824.0, 4822.0, 4822.0, 4822.0, 4818.0, 4790.0, 4790.0, 4790.0, 4828.0, 4834.0, 4794.0, 4790.0, 4788.0, 4800.0, 4840.0, 4836.0, 4794.0, 4788.0, 4788.0, 4786.0, 4790.0, 4794.0, 4822.0, 4824.0, 4828.0, 4828.0, 4824.0, 4820.0, 4862.0, 4830.0, 4792.0, 4792.0, 4802.0, 4776.0, 4764.0, 4784.0, 4762.0, 4786.0, 4794.0, 4864.0, 4888.0, 4852.0, 4796.0, 4792.0, 4790.0, 4788.0, 4792.0, 4796.0, 4794.0, 4828.0, 4852.0, 4826.0, 4798.0, 4792.0, 4794.0, 4800.0, 4860.0, 4858.0, 4792.0, 4766.0, 4766.0, 4762.0, 4766.0, 4794.0, 4792.0, 4796.0, 4798.0, 4794.0, 4800.0, 4822.0, 4796.0, 4796.0, 4798.0, 4804.0, 4798.0, 4798.0, 4840.0, 4838.0, 4798.0, 4762.0, 4780.0, 4754.0, 4760.0, 4768.0, 4830.0, 4856.0, 4856.0, 4858.0, 4892.0, 4838.0, 4788.0, 4754.0, 4774.0, 4776.0, 4764.0, 4794.0, 4828.0, 4862.0, 4888.0, 4866.0, 4822.0, 4794.0, 4766.0, 4766.0, 4758.0, 4782.0, 4766.0, 4826.0, 4834.0, 4828.0, 4824.0, 4798.0, 4792.0, 4770.0, 4792.0, 4806.0, 4828.0, 4790.0, 4790.0, 4798.0, 4768.0, 4770.0, 4798.0, 4792.0, 4792.0, 4768.0, 4790.0, 4796.0, 4834.0, 4824.0, 4796.0, 4804.0, 4794.0, 4792.0, 4766.0, 4766.0, 4770.0, 4796.0, 4800.0, 4866.0],
      "WindowWidth": [18592.0, 18562.0, 18592.0, 18624.0, 18614.0, 18580.0, 18562.0, 18530.0, 18564.0, 18564.0, 18560.0, 18560.0, 18594.0, 18632.0, 18642.0, 18642.0, 18596.0, 18564.0, 18564.0, 18566.0, 18562.0, 18558.0, 18592.0, 18596.0, 18596.0, 18560.0, 18564.0, 18570.0, 18556.0, 18590.0, 18556.0, 18562.0, 18564.0, 18568.0, 18560.0, 18590.0, 18624.0, 18600.0, 18560.0, 18556.0, 18564.0, 18568.0, 18560.0, 18562.0, 18560.0, 18590.0, 18598.0, 18594.0, 18602.0, 18592.0, 18558.0, 18562.0, 18562.0, 18582.0, 18614.0, 18560.0, 18566.0, 18566.0, 18566.0, 18562.0, 18558.0, 18558.0, 18592.0, 18594.0, 18596.0, 18598.0, 18594.0, 18558.0, 18562.0, 18560.0, 18580.0, 18584.0, 18558.0, 18564.0, 18564.0, 18554.0, 18586.0, 18590.0, 18556.0, 18564.0, 18566.0, 18566.0, 18562.0, 18556.0, 18590.0, 18592.0, 18598.0, 18588.0, 18586.0, 18584.0, 18620.0, 18588.0, 18556.0, 18552.0, 18548.0, 18522.0, 18536.0, 18566.0, 18532.0, 18562.0, 18556.0, 18626.0, 18654.0, 18632.0, 18556.0, 18560.0, 18566.0, 18566.0, 18562.0, 18562.0, 18556.0, 18590.0, 18628.0, 18592.0, 18556.0, 18556.0, 18562.0, 18556.0, 18608.0, 18620.0, 18558.0, 18524.0, 18524.0, 18534.0, 18526.0, 18552.0, 18558.0, 18558.0, 18552.0, 18558.0, 18552.0, 18588.0, 18554.0, 18556.0, 18556.0, 18556.0, 18550.0, 18558.0, 18580.0, 18574.0, 18550.0, 18534.0, 18566.0, 18532.0, 18534.0, 18524.0, 18592.0, 18622.0, 18626.0, 18628.0, 18652.0, 18586.0, 18556.0, 18536.0, 18562.0, 18566.0, 18538.0, 18552.0, 18590.0, 18634.0, 18650.0, 18628.0, 18586.0, 18564.0, 18528.0, 18534.0, 18534.0, 18566.0, 18530.0, 18584.0, 18594.0, 18598.0, 18592.0, 18550.0, 18546.0, 18520.0, 18554.0, 18550.0, 18580.0, 18548.0, 18556.0, 18552.0, 18522.0, 18528.0, 18550.0, 18552.0, 18550.0, 18522.0, 18554.0, 18554.0, 18584.0, 18584.0, 18558.0, 18548.0, 18552.0, 18560.0, 18526.0, 18524.0, 18524.0, 18550.0, 18554.0, 18616.0]
    },
    "slices": {}
  }
}