{
  "AcquisitionMatrixPE": 104,
  "AcquisitionNumber": 1,
  "AcquisitionTime": "11:27:39.035000",
  "BandwidthPerPixelPhaseEncode": 17.17,
  "BaseResolution": 104,
  "BodyPartExamined": "BRAIN",
  "CoilString": "HC1-7;NC1_2",
  "ConsistencyInfo": "N4_VE11C_LATEST_20160120",
  "ConversionSoftware": "dcm2niix",
  "ConversionSoftwareVersion": "v1.0.20190902",
  "DerivedVendorReportedEchoSpacing": 0.000560011,
  "DeviceSerialNumber": "167006",
  "DwellTime": 2.1e-06,
  "EchoTime": 0.037,
  "EchoTrainLength": 104,
  "EffectiveEchoSpacing": 0.000560011,
  "FlipAngle": 52,
  "ImageComments": "Unaliased_MB4_PE3_LB",
  "ImageOrientationPatientDICOM": [0.999775, 0.0158178, 0.0141268, -0.00680538, 0.870171, -0.492704],
  "ImageType": [
    "ORIGINAL",
    "PRIMARY",
    "M",
    "MB",
    "ND",
    "MOSAIC"
],
  "ImagingFrequency": 123.259,
  "InPlanePhaseEncodingDirectionDICOM": "COL",
  "InstitutionAddress": "Chemin_Queen-Mary_4565_Montreal_District_CA_H3W_1W5",
  "InstitutionName": "IUGM",
  "InstitutionalDepartmentName": "Department",
  "MRAcquisitionType": "2D",
  "MagneticFieldStrength": 3,
  "Manufacturer": "Siemens",
  "ManufacturersModelName": "Prisma_fit",
  "Modality": "MR",
  "MultibandAccelerationFactor": 4,
  "PartialFourier": 1,
  "PatientPosition": "HFS",
  "PercentPhaseFOV": 100,
  "PhaseEncodingDirection": "j",
  "PhaseEncodingSteps": 104,
  "PhaseResolution": 1,
  "PixelBandwidth": 2290,
  "ProcedureStepDescription": "localizers_retinotopy",
  "ProtocolName": "func_task-wedges",
  "PulseSequenceDetails": "%CustomerSeq%_cmrr_mbep2d_bold",
  "ReceiveCoilActiveElements": "HC1-7;NC1,2",
  "ReceiveCoilName": "HeadNeck_64",
  "ReconMatrixPE": 104,
  "RepetitionTime": 1.49,
  "SAR": 0.0461583,
  "ScanOptions": "FS",
  "ScanningSequence": "EP",
  "SequenceName": "epfid2d1_104",
  "SequenceVariant": "SK_SS",
  "SeriesDescription": "func_task-wedges",
  "SeriesNumber": 10,
  "ShimSetting": [620, -7210, -8862, 311, 29, -152, 23, -18],
  "SliceThickness": 2,
  "SliceTiming": [0, 0.7825, 0.0975, 0.88, 0.195, 0.9775, 0.2925, 1.0775, 0.39, 1.175, 0.4875, 1.2725, 0.5875, 1.37, 0.685, 0, 0.7825, 0.0975, 0.88, 0.195, 0.9775, 0.2925, 1.0775, 0.39, 1.175, 0.4875, 1.2725, 0.5875, 1.37, 0.685, 0, 0.7825, 0.0975, 0.88, 0.195, 0.9775, 0.2925, 1.0775, 0.39, 1.175, 0.4875, 1.2725, 0.5875, 1.37, 0.685, 0, 0.7825, 0.0975, 0.88, 0.195, 0.9775, 0.2925, 1.0775, 0.39, 1.175, 0.4875, 1.2725, 0.5875, 1.37, 0.685],
  "SoftwareVersions": "syngo_MR_E11",
  "SpacingBetweenSlices": 2,
  "StationName": "MRC35049",
  "TaskName": "wedges",
  "TotalReadoutTime": 0.0576811,
  "TxRefAmp": 265.896,
  "WipMemBlock": "307a8b60-3f32-4d3c-83f5-f8796d7716d0||Sequence: R016 ve11c/master r/e634e98; Dec 19 2017 11:00:25 by eja",
  "dcmmeta_affine": [
    [-1.999550223350525, -0.013610757887363434, 0.04017236456274986, 107.3576889038086],
    [-0.031635552644729614, 1.7403411865234375, -0.9849933385848999, -50.70911407470703],
    [0.02825355716049671, 0.9854072332382202, 1.7401649951934814, -88.62406158447266],
    [0.0, 0.0, 0.0, 1.0]
],
  "dcmmeta_reorient_transform": [
    [0.0, -1.0, 0.0, 103.0],
    [1.0, 0.0, 0.0, 0.0],
    [0.0, 0.0, 1.0, 0.0],
    [0.0, 0.0, 0.0, 1.0]
],
  "dcmmeta_shape": [104, 104, 60, 202],
  "dcmmeta_slice_dim": 2,
  "dcmmeta_version": 0.6,
  "global": {
    "const": {
      "AcquisitionMatrix": [104, 0, 0, 104],
      "AngioFlag": "N",
      "BitsAllocated": 16,
      "BitsStored": 16,
      "BodyPartExamined": "BRAIN",
      "Columns": 832,
      "EchoNumbers": 1,
      "EchoTime": 37.0,
      "EchoTrainLength": 104,
      "FlipAngle": 52.0,
      "HighBit": 15,
      "ImageOrientationPatient": [0.99977509075156, 0.01581777604641, 0.01412677860124, -0.0068053787509, 0.87017057101231, -0.4927036271068],
      "ImagePositionPatient": [-828.83773223307, -773.54554114202, 361.27682906987],
      "ImageType": [
        "ORIGINAL",
        "PRIMARY",
        "M",
        "MB",
        "ND",
        "MOSAIC"
],
      "ImagedNucleus": "1H",
      "ImagingFrequency": 123.258929,
      "InPlanePhaseEncodingDirection": "COL",
      "MRAcquisitionType": "2D",
      "MagneticFieldStrength": 3.0,
      "Manufacturer": "SIEMENS",
      "ManufacturerModelName": "Prisma_fit",
      "Modality": "MR",
      "NumberOfAverages": 1.0,
      "NumberOfPhaseEncodingSteps": 104,
      "PercentPhaseFieldOfView": 100.0,
      "PercentSampling": 100.0,
      "PerformedProcedureStepStartTime": "112412.315000",
      "PhotometricInterpretation": "MONOCHROME2",
      "PixelBandwidth": 2290.0,
      "PixelRepresentation": 0,
      "PixelSpacing": [2.0, 2.0],
      "ProtocolName": "func_task-wedges",
      "RepetitionTime": 1490.0,
      "Rows": 832,
      "SAR": 0.04615826675399,
      "SamplesPerPixel": 1,
      "ScanOptions": "FS",
      "ScanningSequence": "EP",
      "SequenceName": "epfid2d1_104",
      "SequenceVariant": [
        "SK",
        "SS"
],
      "SeriesDescription": "func_task-wedges",
      "SeriesNumber": 10,
      "SeriesTime": "112903.802000",
      "SliceLocation": -49.979771879446,
      "SliceThickness": 2.0,
      "SmallestImagePixelValue": 0,
      "SoftwareVersions": "syngo MR E11",
      "SpacingBetweenSlices": 2.0000000194257,
      "SpecificCharacterSet": "ISO_IR 100",
      "StudyID": "1",
      "StudyTime": "112412.248000",
      "TransmitCoilName": "Body",
      "VariableFlipAngleFlag": "N",
      "WindowCenterWidthExplanation": "Algo1",
      "dBdt": 0.0},
    "slices": {}
  },
  "time": {
    "samples": {
      "AcquisitionNumber": [1, 2, 3, 4, 5, 6, 7, 8, 9, 10, 11, 12, 13, 14, 15, 16, 17, 18, 19, 20, 21, 22, 23, 24, 25, 26, 27, 28, 29, 30, 31, 32, 33, 34, 35, 36, 37, 38, 39, 40, 41, 42, 43, 44, 45, 46, 47, 48, 49, 50, 51, 52, 53, 54, 55, 56, 57, 58, 59, 60, 61, 62, 63, 64, 65, 66, 67, 68, 69, 70, 71, 72, 73, 74, 75, 76, 77, 78, 79, 80, 81, 82, 83, 84, 85, 86, 87, 88, 89, 90, 91, 92, 93, 94, 95, 96, 97, 98, 99, 100, 101, 102, 103, 104, 105, 106, 107, 108, 109, 110, 111, 112, 113, 114, 115, 116, 117, 118, 119, 120, 121, 122, 123, 124, 125, 126, 127, 128, 129, 130, 131, 132, 133, 134, 135, 136, 137, 138, 139, 140, 141, 142, 143, 144, 145, 146, 147, 148, 149, 150, 151, 152, 153, 154, 155, 156, 157, 158, 159, 160, 161, 162, 163, 164, 165, 166, 167, 168, 169, 170, 171, 172, 173, 174, 175, 176, 177, 178, 179, 180, 181, 182, 183, 184, 185, 186, 187, 188, 189, 190, 191, 192, 193, 194, 195, 196, 197, 198, 199, 200, 201, 202],
      "AcquisitionTime": ["112739.035000", "112740.525000", "112742.015000", "112743.505000", "112744.995000", "112746.485000", "112747.975000", "112749.465000", "112750.955000", "112752.445000", "112753.935000", "112755.425000", "112756.915000", "112758.405000", "112759.895000", "112801.385000", "112802.875000", "112804.365000", "112805.855000", "112807.345000", "112808.835000", "112810.325000", "112811.815000", "112813.305000", "112814.795000", "112816.285000", "112817.775000", "112819.265000", "112820.755000", "112822.245000", "112823.735000", "112825.225000", "112826.715000", "112828.205000", "112829.695000", "112831.185000", "112832.675000", "112834.165000", "112835.655000", "112837.145000", "112838.635000", "112840.125000", "112841.615000", "112843.105000", "112844.595000", "112846.085000", "112847.575000", "112849.065000", "112850.555000", "112852.045000", "112853.535000", "112855.025000", "112856.515000", "112858.005000", "112859.495000", "112900.985000", "112902.475000", "112903.965000", "112905.455000", "112906.945000", "112908.435000", "112909.925000", "112911.415000", "112912.905000", "112914.395000", "112915.885000", "112917.375000", "112918.865000", "112920.355000", "112921.845000", "112923.335000", "112924.825000", "112926.315000", "112927.805000", "112929.295000", "112930.785000", "112932.275000", "112933.765000", "112935.255000", "112936.745000", "112938.235000", "112939.725000", "112941.215000", "112942.705000", "112944.195000", "112945.685000", "112947.175000", "112948.665000", "112950.155000", "112951.645000", "112953.135000", "112954.625000", "112956.115000", "112957.605000", "112959.095000", "113000.585000", "113002.075000", "113003.565000", "113005.055000", "113006.545000", "113008.035000", "113009.525000", "113011.015000", "113012.505000", "113013.995000", "113015.485000", "113016.975000", "113018.465000", "113019.955000", "113021.445000", "113022.935000", "113024.425000", "113025.915000", "113027.405000", "113028.895000", "113030.385000", "113031.875000", "113033.365000", "113034.855000", "113036.345000", "113037.835000", "113039.325000", "113040.815000", "113042.305000", "113043.795000", "113045.285000", "113046.775000", "113048.265000", "113049.755000", "113051.245000", "113052.735000", "113054.225000", "113055.715000", "113057.205000", "113058.695000", "113100.185000", "113101.675000", "113103.165000", "113104.655000", "113106.145000", "113107.635000", "113109.125000", "113110.615000", "113112.105000", "113113.595000", "113115.085000", "113116.575000", "113118.065000", "113119.555000", "113121.045000", "113122.535000", "113124.025000", "113125.515000", "113127.005000", "113128.495000", "113129.985000", "113131.475000", "113132.965000", "113134.455000", "113135.945000", "113137.435000", "113138.925000", "113140.415000", "113141.905000", "113143.395000", "113144.885000", "113146.375000", "113147.865000", "113149.355000", "113150.845000", "113152.335000", "113153.825000", "113155.315000", "113156.805000", "113158.295000", "113159.785000", "113201.275000", "113202.765000", "113204.255000", "113205.745000", "113207.235000", "113208.725000", "113210.215000", "113211.705000", "113213.195000", "113214.685000", "113216.175000", "113217.665000", "113219.155000", "113220.645000", "113222.135000", "113223.625000", "113225.115000", "113226.605000", "113228.095000", "113229.585000", "113231.075000", "113232.565000", "113234.055000", "113235.545000", "113237.035000", "113238.525000"],
      "ContentTime": ["112903.805000", "112903.809000", "112903.813000", "112903.816000", "112903.819000", "112903.823000", "112903.826000", "112903.829000", "112903.833000", "112903.836000", "112903.839000", "112903.843000", "112903.846000", "112903.850000", "112903.854000", "112903.857000", "112903.861000", "112903.864000", "112903.867000", "112903.871000", "112903.874000", "112903.878000", "112903.881000", "112903.884000", "112903.888000", "112903.891000", "112903.895000", "112903.898000", "112903.902000", "112903.905000", "112903.908000", "112923.755000", "112923.771000", "112923.775000", "112923.778000", "112923.781000", "112923.785000", "112923.788000", "112923.792000", "112923.796000", "112923.799000", "112923.803000", "112923.807000", "112923.810000", "112923.813000", "112923.817000", "112923.820000", "112923.823000", "112923.827000", "112923.830000", "112923.834000", "112943.755000", "112943.759000", "112943.762000", "112943.766000", "112943.769000", "112943.773000", "112943.776000", "112943.779000", "112943.783000", "112943.786000", "112943.789000", "112943.793000", "112943.796000", "112943.799000", "112943.803000", "112943.806000", "112943.809000", "112943.813000", "112943.816000", "112943.820000", "112943.823000", "113003.755000", "113003.759000", "113003.762000", "113003.766000", "113003.769000", "113003.772000", "113003.776000", "113003.783000", "113003.786000", "113003.790000", "113003.793000", "113003.797000", "113003.800000", "113003.803000", "113003.806000", "113003.811000", "113003.815000", "113003.818000", "113003.821000", "113003.825000", "113043.755000", "113043.759000", "113043.763000", "113043.776000", "113043.780000", "113043.783000", "113043.787000", "113043.790000", "113043.794000", "113043.797000", "113043.800000", "113043.804000", "113043.807000", "113043.811000", "113043.814000", "113043.818000", "113043.821000", "113043.824000", "113043.827000", "113043.831000", "113043.834000", "113043.838000", "113043.841000", "113043.844000", "113043.848000", "113043.851000", "113043.854000", "113043.858000", "113043.861000", "113043.864000", "113043.868000", "113123.755000", "113123.759000", "113123.763000", "113123.766000", "113123.769000", "113123.773000", "113123.776000", "113123.780000", "113123.783000", "113123.786000", "113123.796000", "113123.800000", "113123.803000", "113123.806000", "113123.810000", "113123.813000", "113123.816000", "113123.820000", "113123.824000", "113123.827000", "113123.830000", "113123.834000", "113123.838000", "113123.841000", "113123.844000", "113123.848000", "113123.851000", "113203.755000", "113203.759000", "113203.762000", "113203.766000", "113203.769000", "113203.773000", "113203.776000", "113203.780000", "113203.783000", "113203.786000", "113203.790000", "113203.793000", "113203.796000", "113203.800000", "113203.803000", "113203.806000", "113203.810000", "113203.813000", "113203.816000", "113203.820000", "113203.823000", "113203.826000", "113203.830000", "113203.833000", "113203.836000", "113203.840000", "113203.843000", "113240.441000", "113240.444000", "113240.448000", "113240.451000", "113240.455000", "113240.458000", "113240.461000", "113240.465000", "113240.468000", "113240.471000", "113240.475000", "113240.478000", "113240.482000", "113240.485000", "113240.488000", "113240.492000", "113240.495000", "113240.498000", "113240.502000", "113240.505000", "113240.508000", "113240.512000", "113240.515000", "113240.519000", "113240.522000"],
      "InstanceCreationTime": ["112903.805000", "112903.809000", "112903.813000", "112903.816000", "112903.819000", "112903.823000", "112903.826000", "112903.829000", "112903.833000", "112903.836000", "112903.839000", "112903.843000", "112903.846000", "112903.850000", "112903.854000", "112903.857000", "112903.861000", "112903.864000", "112903.867000", "112903.871000", "112903.874000", "112903.878000", "112903.881000", "112903.884000", "112903.888000", "112903.891000", "112903.895000", "112903.898000", "112903.902000", "112903.905000", "112903.908000", "112923.755000", "112923.771000", "112923.775000", "112923.778000", "112923.781000", "112923.785000", "112923.788000", "112923.792000", "112923.796000", "112923.799000", "112923.803000", "112923.807000", "112923.810000", "112923.813000", "112923.817000", "112923.820000", "112923.823000", "112923.827000", "112923.830000", "112923.834000", "112943.755000", "112943.759000", "112943.762000", "112943.766000", "112943.769000", "112943.773000", "112943.776000", "112943.779000", "112943.783000", "112943.786000", "112943.789000", "112943.793000", "112943.796000", "112943.799000", "112943.803000", "112943.806000", "112943.809000", "112943.813000", "112943.816000", "112943.820000", "112943.823000", "113003.755000", "113003.759000", "113003.762000", "113003.766000", "113003.769000", "113003.772000", "113003.776000", "113003.783000", "113003.786000", "113003.790000", "113003.793000", "113003.797000", "113003.800000", "113003.803000", "113003.806000", "113003.811000", "113003.815000", "113003.818000", "113003.821000", "113003.825000", "113043.755000", "113043.759000", "113043.763000", "113043.776000", "113043.780000", "113043.783000", "113043.787000", "113043.790000", "113043.794000", "113043.797000", "113043.800000", "113043.804000", "113043.807000", "113043.811000", "113043.814000", "113043.818000", "113043.821000", "113043.824000", "113043.827000", "113043.831000", "113043.834000", "113043.838000", "113043.841000", "113043.844000", "113043.848000", "113043.851000", "113043.854000", "113043.858000", "113043.861000", "113043.864000", "113043.868000", "113123.755000", "113123.759000", "113123.763000", "113123.766000", "113123.769000", "113123.773000", "113123.776000", "113123.780000", "113123.783000", "113123.786000", "113123.796000", "113123.800000", "113123.803000", "113123.806000", "113123.810000", "113123.813000", "113123.816000", "113123.820000", "113123.824000", "113123.827000", "113123.830000", "113123.834000", "113123.838000", "113123.841000", "113123.844000", "113123.848000", "113123.851000", "113203.755000", "113203.759000", "113203.762000", "113203.766000", "113203.769000", "113203.773000", "113203.776000", "113203.780000", "113203.783000", "113203.786000", "113203.790000", "113203.793000", "113203.796000", "113203.800000", "113203.803000", "113203.806000", "113203.810000", "113203.813000", "113203.816000", "113203.820000", "113203.823000", "113203.826000", "113203.830000", "113203.833000", "113203.836000", "113203.840000", "113203.843000", "113240.441000", "113240.444000", "113240.448000", "113240.451000", "113240.455000", "113240.458000", "113240.461000", "113240.465000", "113240.468000", "113240.471000", "113240.475000", "113240.478000", "113240.482000", "113240.485000", "113240.488000", "113240.492000", "113240.495000", "113240.498000", "113240.502000", "113240.505000", "113240.508000", "113240.512000", "113240.515000", "113240.519000", "113240.522000"],
      "InstanceNumber": [1, 2, 3, 4, 5, 6, 7, 8, 9, 10, 11, 12, 13, 14, 15, 16, 17, 18, 19, 20, 21, 22, 23, 24, 25, 26, 27, 28, 29, 30, 31, 32, 33, 34, 35, 36, 37, 38, 39, 40, 41, 42, 43, 44, 45, 46, 47, 48, 49, 50, 51, 52, 53, 54, 55, 56, 57, 58, 59, 60, 61, 62, 63, 64, 65, 66, 67, 68, 69, 70, 71, 72, 73, 74, 75, 76, 77, 78, 79, 80, 81, 82, 83, 84, 85, 86, 87, 88, 89, 90, 91, 92, 93, 94, 95, 96, 97, 98, 99, 100, 101, 102, 103, 104, 105, 106, 107, 108, 109, 110, 111, 112, 113, 114, 115, 116, 117, 118, 119, 120, 121, 122, 123, 124, 125, 126, 127, 128, 129, 130, 131, 132, 133, 134, 135, 136, 137, 138, 139, 140, 141, 142, 143, 144, 145, 146, 147, 148, 149, 150, 151, 152, 153, 154, 155, 156, 157, 158, 159, 160, 161, 162, 163, 164, 165, 166, 167, 168, 169, 170, 171, 172, 173, 174, 175, 176, 177, 178, 179, 180, 181, 182, 183, 184, 185, 186, 187, 188, 189, 190, 191, 192, 193, 194, 195, 196, 197, 198, 199, 200, 201, 202],
      "LargestImagePixelValue": [48656, 47072, 46478, 45910, 45818, 46090, 46660, 45723, 46155, 46038, 46301, 46065, 43859, 42855, 44516, 44637, 44642, 44947, 44949, 44941, 44629, 45477, 44489, 44620, 44653, 44887, 44714, 44608, 45078, 45639, 44172, 44735, 44156, 44548, 44908, 45554, 45019, 44925, 44711, 44554, 45090, 44459, 44242, 43967, 44663, 45485, 45234, 44602, 44778, 45195, 44644, 44800, 44922, 44694, 44317, 44096, 44351, 44824, 44594, 45011, 44861, 44952, 44700, 44986, 44856, 45039, 44635, 44407, 45101, 44934, 44856, 44581, 44468, 44246, 44714, 44431, 44573, 44525, 44366, 45780, 45150, 44588, 44182, 44242, 43938, 44639, 45149, 44087, 45459, 44356, 44447, 44287, 44582, 44345, 44385, 44501, 45262, 45070, 45106, 45103, 45177, 45242, 45034, 45049, 44590, 45056, 45227, 44723, 45365, 44489, 44425, 44385, 44795, 44164, 44156, 44059, 44025, 44018, 43992, 43708, 44297, 43720, 44137, 44746, 44690, 44280, 43791, 44473, 44891, 44816, 44647, 44704, 44353, 44757, 44291, 44253, 44212, 44862, 45424, 45138, 45453, 44680, 44630, 44081, 44260, 44550, 44118, 44326, 44227, 45390, 45011, 45275, 45082, 44869, 45100, 45200, 45033, 44612, 44597, 44939, 44238, 44309, 44414, 44604, 44238, 44369, 44331, 44617, 44370, 45002, 44435, 44085, 44738, 44322, 44761, 44843, 44420, 44901, 44734, 45154, 44526, 44714, 44437, 44944, 44419, 44427, 44607, 44310, 44727, 44817, 43797, 44042, 44863, 44947, 44808, 44196, 44184, 44841, 44857, 44465, 44837, 45440],
      "WindowCenter": [11146.0, 11123.0, 11133.0, 11141.0, 11125.0, 11097.0, 11069.0, 11049.0, 11074.0, 11100.0, 11118.0, 11123.0, 11097.0, 11070.0, 11063.0, 11056.0, 11080.0, 11114.0, 11128.0, 11131.0, 11113.0, 11092.0, 11089.0, 11101.0, 11083.0, 11094.0, 11111.0, 11085.0, 11091.0, 11108.0, 11117.0, 11101.0, 11103.0, 11078.0, 11089.0, 11115.0, 11129.0, 11138.0, 11135.0, 11115.0, 11072.0, 11063.0, 11073.0, 11075.0, 11102.0, 11116.0, 11112.0, 11103.0, 11088.0, 11076.0, 11068.0, 11088.0, 11112.0, 11113.0, 11115.0, 11123.0, 11110.0, 11099.0, 11116.0, 11137.0, 11146.0, 11121.0, 11088.0, 11078.0, 11069.0, 11073.0, 11063.0, 11074.0, 11083.0, 11069.0, 11069.0, 11065.0, 11072.0, 11076.0, 11080.0, 11083.0, 11084.0, 11092.0, 11093.0, 11080.0, 11046.0, 11073.0, 11107.0, 11121.0, 11118.0, 11103.0, 11092.0, 11065.0, 11072.0, 11076.0, 11079.0, 11078.0, 11089.0, 11084.0, 11080.0, 11073.0, 11069.0, 11065.0, 11045.0, 11050.0, 11061.0, 11056.0, 11049.0, 11037.0, 11029.0, 11051.0, 11063.0, 11075.0, 11076.0, 11064.0, 11065.0, 11067.0, 11071.0, 11072.0, 11070.0, 11061.0, 11061.0, 11066.0, 11059.0, 11069.0, 11077.0, 11064.0, 11072.0, 11080.0, 11077.0, 11075.0, 11090.0, 11109.0, 11101.0, 11074.0, 11056.0, 11052.0, 11053.0, 11068.0, 11066.0, 11076.0, 11081.0, 11078.0, 11071.0, 11053.0, 11041.0, 11037.0, 11037.0, 11047.0, 11057.0, 11029.0, 11039.0, 11072.0, 11096.0, 11117.0, 11095.0, 11070.0, 11063.0, 11073.0, 11084.0, 11087.0, 11080.0, 11066.0, 11066.0, 11072.0, 11068.0, 11074.0, 11075.0, 11075.0, 11068.0, 11066.0, 11078.0, 11083.0, 11074.0, 11088.0, 11096.0, 11079.0, 11065.0, 11047.0, 11051.0, 11054.0, 11064.0, 11080.0, 11081.0, 11075.0, 11059.0, 11067.0, 11057.0, 11061.0, 11056.0, 11054.0, 11045.0, 11047.0, 11058.0, 11066.0, 11063.0, 11065.0, 11063.0, 11063.0, 11076.0, 11068.0, 11041.0, 11027.0, 11018.0, 11028.0, 11063.0, 11102.0],
      "WindowWidth": [24019.0, 23931.0, 23936.0, 23960.0, 23915.0, 23834.0, 23768.0, 23718.0, 23774.0, 23833.0, 23876.0, 23890.0, 23840.0, 23782.0, 23760.0, 23738.0, 23791.0, 23871.0, 23904.0, 23912.0, 23873.0, 23818.0, 23813.0, 23845.0, 23805.0, 23825.0, 23865.0, 23811.0, 23817.0, 23853.0, 23880.0, 23847.0, 23852.0, 23795.0, 23816.0, 23874.0, 23905.0, 23927.0, 23920.0, 23876.0, 23772.0, 23753.0, 23778.0, 23786.0, 23841.0, 23869.0, 23862.0, 23843.0, 23809.0, 23777.0, 23760.0, 23807.0, 23862.0, 23869.0, 23873.0, 23902.0, 23870.0, 23839.0, 23877.0, 23922.0, 23941.0, 23887.0, 23806.0, 23783.0, 23766.0, 23773.0, 23756.0, 23783.0, 23800.0, 23771.0, 23769.0, 23763.0, 23778.0, 23787.0, 23794.0, 23802.0, 23804.0, 23821.0, 23826.0, 23797.0, 23716.0, 23777.0, 23860.0, 23891.0, 23884.0, 23846.0, 23824.0, 23763.0, 23772.0, 23785.0, 23794.0, 23792.0, 23818.0, 23803.0, 23791.0, 23775.0, 23764.0, 23751.0, 23705.0, 23715.0, 23741.0, 23731.0, 23715.0, 23687.0, 23667.0, 23716.0, 23745.0, 23778.0, 23780.0, 23756.0, 23762.0, 23765.0, 23773.0, 23780.0, 23772.0, 23753.0, 23751.0, 23759.0, 23746.0, 23768.0, 23786.0, 23760.0, 23787.0, 23799.0, 23788.0, 23784.0, 23818.0, 23859.0, 23841.0, 23779.0, 23737.0, 23727.0, 23730.0, 23763.0, 23760.0, 23781.0, 23789.0, 23781.0, 23766.0, 23722.0, 23694.0, 23689.0, 23689.0, 23712.0, 23737.0, 23674.0, 23702.0, 23767.0, 23827.0, 23872.0, 23827.0, 23772.0, 23750.0, 23771.0, 23799.0, 23803.0, 23790.0, 23759.0, 23759.0, 23771.0, 23765.0, 23779.0, 23780.0, 23781.0, 23762.0, 23758.0, 23789.0, 23801.0, 23783.0, 23809.0, 23835.0, 23789.0, 23756.0, 23715.0, 23720.0, 23735.0, 23752.0, 23790.0, 23796.0, 23776.0, 23744.0, 23757.0, 23739.0, 23750.0, 23736.0, 23737.0, 23711.0, 23716.0, 23739.0, 23756.0, 23756.0, 23759.0, 23751.0, 23752.0, 23775.0, 23760.0, 23700.0, 23669.0, 23647.0, 23669.0, 23758.0, 23840.0]
    },
    "slices": {}
  }
}