{
  "AcquisitionMatrixPE": 104,
  "AcquisitionNumber": 1,
  "AcquisitionTime": "18:24:40.245000",
  "BandwidthPerPixelPhaseEncode": 17.17,
  "BaseResolution": 104,
  "BodyPartExamined": "BRAIN",
  "CoilString": "HC1-7;NC1_2",
  "ConsistencyInfo": "N4_VE11C_LATEST_20160120",
  "ConversionSoftware": "dcm2niix",
  "ConversionSoftwareVersion": "v1.0.20190902",
  "DerivedVendorReportedEchoSpacing": 0.000560011,
  "DeviceSerialNumber": "167006",
  "DwellTime": 2.1e-06,
  "EchoTime": 0.037,
  "EchoTrainLength": 104,
  "EffectiveEchoSpacing": 0.000560011,
  "FlipAngle": 52,
  "ImageComments": "Unaliased_MB4_PE3_LB",
  "ImageOrientationPatientDICOM": [0.995421, 0.0950235, 0.0103982, -0.0832378, 0.915127, -0.394481],
  "ImageType": [
    "ORIGINAL",
    "PRIMARY",
    "P",
    "MB",
    "ND",
    "MOSAIC"
],
  "ImagingFrequency": 123.259,
  "InPlanePhaseEncodingDirectionDICOM": "COL",
  "InstitutionAddress": "Chemin_Queen-Mary_4565_Montreal_District_CA_H3W_1W5",
  "InstitutionName": "IUGM",
  "InstitutionalDepartmentName": "Department",
  "MRAcquisitionType": "2D",
  "MagneticFieldStrength": 3,
  "Manufacturer": "Siemens",
  "ManufacturersModelName": "Prisma_fit",
  "Modality": "MR",
  "MultibandAccelerationFactor": 4,
  "PartialFourier": 1,
  "PatientPosition": "HFS",
  "PercentPhaseFOV": 100,
  "PhaseEncodingDirection": "j",
  "PhaseEncodingSteps": 104,
  "PhaseResolution": 1,
  "PixelBandwidth": 2290,
  "ProcedureStepDescription": "localizers_retinotopy",
  "ProtocolName": "func_task-rings",
  "PulseSequenceDetails": "%CustomerSeq%_cmrr_mbep2d_bold",
  "ReceiveCoilActiveElements": "HC1-7;NC1,2",
  "ReceiveCoilName": "HeadNeck_64",
  "ReconMatrixPE": 104,
  "RepetitionTime": 1.49,
  "SAR": 0.0407345,
  "ScanOptions": "FS",
  "ScanningSequence": "EP",
  "SequenceName": "epfid2d1_104",
  "SequenceVariant": "SK_SS",
  "SeriesDescription": "func_task-rings",
  "SeriesNumber": 14,
  "ShimSetting": [623, -7194, -8827, 610, 67, -12, -50, -15],
  "SliceThickness": 2,
  "SliceTiming": [0, 0.785, 0.0975, 0.8825, 0.195, 0.98, 0.295, 1.0775, 0.3925, 1.175, 0.49, 1.275, 0.5875, 1.3725, 0.685, 0, 0.785, 0.0975, 0.8825, 0.195, 0.98, 0.295, 1.0775, 0.3925, 1.175, 0.49, 1.275, 0.5875, 1.3725, 0.685, 0, 0.785, 0.0975, 0.8825, 0.195, 0.98, 0.295, 1.0775, 0.3925, 1.175, 0.49, 1.275, 0.5875, 1.3725, 0.685, 0, 0.785, 0.0975, 0.8825, 0.195, 0.98, 0.295, 1.0775, 0.3925, 1.175, 0.49, 1.275, 0.5875, 1.3725, 0.685],
  "SoftwareVersions": "syngo_MR_E11",
  "SpacingBetweenSlices": 2,
  "StationName": "MRC35049",
  "TaskName": "rings",
  "TotalReadoutTime": 0.0576811,
  "TxRefAmp": 252.936,
  "WipMemBlock": "25b4be1e-fcbb-47c4-a8b4-892acbaf6080||Sequence: R016 ve11c/master r/e634e98; Dec 19 2017 11:00:25 by eja",
  "dcmmeta_affine": [
    [-1.9908413887023926, -0.16647565364837646, 0.0940011590719223, 111.94192504882812],
    [-0.190047025680542, 1.830253005027771, -0.7836172580718994, -46.84538269042969],
    [0.02079635299742222, 0.7889612317085266, 1.837690830230713, -63.96932601928711],
    [0.0, 0.0, 0.0, 1.0]
],
  "dcmmeta_reorient_transform": [
    [0.0, -1.0, 0.0, 103.0],
    [1.0, 0.0, 0.0, 0.0],
    [0.0, 0.0, 1.0, 0.0],
    [0.0, 0.0, 0.0, 1.0]
],
  "dcmmeta_shape": [104, 104, 60, 202],
  "dcmmeta_slice_dim": 2,
  "dcmmeta_version": 0.6,
  "global": {
    "const": {
      "AcquisitionMatrix": [104, 0, 0, 104],
      "AngioFlag": "N",
      "BitsAllocated": 16,
      "BitsStored": 16,
      "BodyPartExamined": "BRAIN",
      "Columns": 832,
      "EchoNumbers": 1,
      "EchoTime": 37.0,
      "EchoTrainLength": 104,
      "FlipAngle": 52.0,
      "HighBit": 15,
      "ImageOrientationPatient": [0.99542071999218, 0.09502351361747, 0.01039817628458, -0.0832378262699, 0.91512650391556, -0.3944806029568],
      "ImagePositionPatient": [-758.86407741313, -877.0598887452, 296.90568482623],
      "ImageType": [
        "ORIGINAL",
        "PRIMARY",
        "P",
        "MB",
        "ND",
        "MOSAIC"
],
      "ImagedNucleus": "1H",
      "ImagingFrequency": 123.25893,
      "InPlanePhaseEncodingDirection": "COL",
      "LargestImagePixelValue": 4095,
      "MRAcquisitionType": "2D",
      "MagneticFieldStrength": 3.0,
      "Manufacturer": "SIEMENS",
      "ManufacturerModelName": "Prisma_fit",
      "Modality": "MR",
      "NumberOfAverages": 1.0,
      "NumberOfPhaseEncodingSteps": 104,
      "PercentPhaseFieldOfView": 100.0,
      "PercentSampling": 100.0,
      "PerformedProcedureStepStartTime": "181314.693000",
      "PhotometricInterpretation": "MONOCHROME2",
      "PixelBandwidth": 2290.0,
      "PixelRepresentation": 0,
      "PixelSpacing": [2.0, 2.0],
      "ProtocolName": "func_task-rings",
      "RepetitionTime": 1490.0,
      "RescaleIntercept": -4096.0,
      "RescaleSlope": 2.0,
      "RescaleType": "US",
      "Rows": 832,
      "SAR": 0.04073445165891,
      "SamplesPerPixel": 1,
      "ScanOptions": "FS",
      "ScanningSequence": "EP",
      "SequenceName": "epfid2d1_104",
      "SequenceVariant": [
        "SK",
        "SS"
],
      "SeriesDescription": "func_task-rings",
      "SeriesNumber": 14,
      "SeriesTime": "182600.006000",
      "SliceLocation": -35.162161525995,
      "SliceThickness": 2.0,
      "SmallestImagePixelValue": 0,
      "SoftwareVersions": "syngo MR E11",
      "SpacingBetweenSlices": 1.9999999687222,
      "SpecificCharacterSet": "ISO_IR 100",
      "StudyID": "1",
      "StudyTime": "181314.604000",
      "TransmitCoilName": "Body",
      "VariableFlipAngleFlag": "N",
      "WindowCenterWidthExplanation": "Algo1",
      "dBdt": 0.0},
    "slices": {}
  },
  "time": {
    "samples": {
      "AcquisitionNumber": [1, 2, 3, 4, 5, 6, 7, 8, 9, 10, 11, 12, 13, 14, 15, 16, 17, 18, 19, 20, 21, 22, 23, 24, 25, 26, 27, 28, 29, 30, 31, 32, 33, 34, 35, 36, 37, 38, 39, 40, 41, 42, 43, 44, 45, 46, 47, 48, 49, 50, 51, 52, 53, 54, 55, 56, 57, 58, 59, 60, 61, 62, 63, 64, 65, 66, 67, 68, 69, 70, 71, 72, 73, 74, 75, 76, 77, 78, 79, 80, 81, 82, 83, 84, 85, 86, 87, 88, 89, 90, 91, 92, 93, 94, 95, 96, 97, 98, 99, 100, 101, 102, 103, 104, 105, 106, 107, 108, 109, 110, 111, 112, 113, 114, 115, 116, 117, 118, 119, 120, 121, 122, 123, 124, 125, 126, 127, 128, 129, 130, 131, 132, 133, 134, 135, 136, 137, 138, 139, 140, 141, 142, 143, 144, 145, 146, 147, 148, 149, 150, 151, 152, 153, 154, 155, 156, 157, 158, 159, 160, 161, 162, 163, 164, 165, 166, 167, 168, 169, 170, 171, 172, 173, 174, 175, 176, 177, 178, 179, 180, 181, 182, 183, 184, 185, 186, 187, 188, 189, 190, 191, 192, 193, 194, 195, 196, 197, 198, 199, 200, 201, 202],
      "AcquisitionTime": ["182440.245000", "182441.735000", "182443.225000", "182444.715000", "182446.205000", "182447.695000", "182449.185000", "182450.675000", "182452.165000", "182453.655000", "182455.145000", "182456.635000", "182458.125000", "182459.615000", "182501.105000", "182502.595000", "182504.085000", "182505.575000", "182507.065000", "182508.555000", "182510.045000", "182511.535000", "182513.025000", "182514.515000", "182516.005000", "182517.495000", "182518.985000", "182520.475000", "182521.965000", "182523.455000", "182524.945000", "182526.435000", "182527.925000", "182529.415000", "182530.905000", "182532.395000", "182533.885000", "182535.375000", "182536.865000", "182538.355000", "182539.845000", "182541.335000", "182542.825000", "182544.315000", "182545.805000", "182547.295000", "182548.785000", "182550.275000", "182551.765000", "182553.255000", "182554.745000", "182556.235000", "182557.725000", "182559.215000", "182600.705000", "182602.195000", "182603.685000", "182605.175000", "182606.665000", "182608.155000", "182609.645000", "182611.135000", "182612.625000", "182614.115000", "182615.605000", "182617.095000", "182618.585000", "182620.075000", "182621.565000", "182623.055000", "182624.545000", "182626.035000", "182627.525000", "182629.015000", "182630.505000", "182631.995000", "182633.485000", "182634.975000", "182636.465000", "182637.955000", "182639.445000", "182640.935000", "182642.425000", "182643.915000", "182645.405000", "182646.895000", "182648.385000", "182649.875000", "182651.365000", "182652.855000", "182654.345000", "182655.835000", "182657.325000", "182658.815000", "182700.305000", "182701.795000", "182703.285000", "182704.775000", "182706.265000", "182707.755000", "182709.245000", "182710.735000", "182712.225000", "182713.715000", "182715.205000", "182716.695000", "182718.185000", "182719.675000", "182721.165000", "182722.655000", "182724.145000", "182725.635000", "182727.125000", "182728.615000", "182730.105000", "182731.595000", "182733.085000", "182734.575000", "182736.065000", "182737.555000", "182739.045000", "182740.535000", "182742.025000", "182743.515000", "182745.005000", "182746.495000", "182747.985000", "182749.475000", "182750.965000", "182752.455000", "182753.945000", "182755.435000", "182756.925000", "182758.415000", "182759.905000", "182801.395000", "182802.885000", "182804.375000", "182805.865000", "182807.355000", "182808.845000", "182810.335000", "182811.825000", "182813.315000", "182814.805000", "182816.295000", "182817.785000", "182819.275000", "182820.765000", "182822.255000", "182823.745000", "182825.235000", "182826.725000", "182828.215000", "182829.705000", "182831.195000", "182832.685000", "182834.175000", "182835.665000", "182837.155000", "182838.645000", "182840.135000", "182841.625000", "182843.115000", "182844.605000", "182846.095000", "182847.585000", "182849.075000", "182850.565000", "182852.055000", "182853.545000", "182855.035000", "182856.525000", "182858.015000", "182859.505000", "182900.995000", "182902.485000", "182903.975000", "182905.465000", "182906.955000", "182908.445000", "182909.935000", "182911.425000", "182912.915000", "182914.405000", "182915.895000", "182917.385000", "182918.875000", "182920.365000", "182921.855000", "182923.345000", "182924.835000", "182926.325000", "182927.815000", "182929.305000", "182930.795000", "182932.285000", "182933.775000", "182935.265000", "182936.755000", "182938.245000", "182939.735000"],
      "ContentTime": ["182600.008000", "182600.011000", "182600.014000", "182600.016000", "182600.019000", "182600.021000", "182600.024000", "182600.026000", "182600.029000", "182600.031000", "182600.034000", "182600.036000", "182600.039000", "182600.042000", "182600.044000", "182600.047000", "182600.049000", "182600.052000", "182600.062000", "182600.064000", "182600.067000", "182600.069000", "182600.072000", "182600.074000", "182600.077000", "182600.079000", "182619.960000", "182619.963000", "182619.965000", "182619.968000", "182619.970000", "182619.972000", "182619.975000", "182619.977000", "182619.980000", "182619.982000", "182619.985000", "182619.987000", "182619.990000", "182619.992000", "182619.994000", "182619.997000", "182620.000000", "182620.003000", "182620.005000", "182620.008000", "182639.953000", "182639.956000", "182639.959000", "182639.961000", "182639.963000", "182639.966000", "182639.971000", "182639.973000", "182639.975000", "182639.978000", "182639.980000", "182639.983000", "182639.985000", "182639.988000", "182639.990000", "182639.993000", "182639.995000", "182639.998000", "182640.001000", "182640.003000", "182640.006000", "182659.952000", "182659.955000", "182659.958000", "182659.960000", "182659.963000", "182659.965000", "182659.967000", "182659.970000", "182659.972000", "182659.975000", "182659.977000", "182659.980000", "182659.982000", "182659.985000", "182659.987000", "182659.990000", "182659.992000", "182659.994000", "182659.997000", "182700.000000", "182740.657000", "182740.660000", "182740.663000", "182740.665000", "182740.668000", "182740.670000", "182740.673000", "182740.675000", "182740.678000", "182740.680000", "182740.683000", "182740.685000", "182740.688000", "182740.691000", "182740.694000", "182740.696000", "182740.699000", "182740.701000", "182740.704000", "182740.706000", "182740.709000", "182740.712000", "182740.714000", "182740.717000", "182740.719000", "182740.722000", "182740.724000", "182740.727000", "182740.730000", "182740.732000", "182740.735000", "182740.738000", "182759.920000", "182759.923000", "182759.925000", "182759.928000", "182759.930000", "182759.933000", "182759.935000", "182759.938000", "182759.940000", "182759.953000", "182759.955000", "182759.958000", "182759.960000", "182759.962000", "182840.003000", "182840.006000", "182840.008000", "182840.011000", "182840.013000", "182840.016000", "182840.019000", "182840.021000", "182840.023000", "182840.026000", "182840.028000", "182840.031000", "182840.033000", "182840.036000", "182840.038000", "182840.041000", "182840.043000", "182840.046000", "182840.048000", "182840.051000", "182840.053000", "182840.056000", "182840.058000", "182840.061000", "182840.063000", "182840.066000", "182840.068000", "182919.998000", "182920.002000", "182920.005000", "182920.007000", "182920.010000", "182920.012000", "182920.015000", "182920.017000", "182920.020000", "182920.022000", "182920.025000", "182920.027000", "182920.030000", "182920.032000", "182920.035000", "182920.037000", "182920.039000", "182920.042000", "182920.044000", "182920.047000", "182920.049000", "182920.052000", "182920.054000", "182920.057000", "182920.059000", "182920.062000", "182920.064000", "182942.114000", "182942.117000", "182942.119000", "182942.122000", "182942.125000", "182942.127000", "182942.130000", "182942.133000", "182942.135000", "182942.138000", "182942.140000", "182942.143000", "182942.145000", "182942.148000", "182942.151000"],
      "InstanceCreationTime": ["182600.008000", "182600.011000", "182600.014000", "182600.016000", "182600.019000", "182600.021000", "182600.024000", "182600.026000", "182600.029000", "182600.031000", "182600.034000", "182600.036000", "182600.039000", "182600.042000", "182600.044000", "182600.047000", "182600.049000", "182600.052000", "182600.062000", "182600.064000", "182600.067000", "182600.069000", "182600.072000", "182600.074000", "182600.077000", "182600.079000", "182619.960000", "182619.963000", "182619.965000", "182619.968000", "182619.970000", "182619.972000", "182619.975000", "182619.977000", "182619.980000", "182619.982000", "182619.985000", "182619.987000", "182619.990000", "182619.992000", "182619.994000", "182619.997000", "182620.000000", "182620.003000", "182620.005000", "182620.008000", "182639.953000", "182639.956000", "182639.959000", "182639.961000", "182639.963000", "182639.966000", "182639.971000", "182639.973000", "182639.975000", "182639.978000", "182639.980000", "182639.983000", "182639.985000", "182639.988000", "182639.990000", "182639.993000", "182639.995000", "182639.998000", "182640.001000", "182640.003000", "182640.006000", "182659.952000", "182659.955000", "182659.958000", "182659.960000", "182659.963000", "182659.965000", "182659.967000", "182659.970000", "182659.972000", "182659.975000", "182659.977000", "182659.980000", "182659.982000", "182659.985000", "182659.987000", "182659.990000", "182659.992000", "182659.994000", "182659.997000", "182700.000000", "182740.657000", "182740.660000", "182740.663000", "182740.665000", "182740.668000", "182740.670000", "182740.673000", "182740.675000", "182740.678000", "182740.680000", "182740.683000", "182740.685000", "182740.688000", "182740.691000", "182740.694000", "182740.696000", "182740.699000", "182740.701000", "182740.704000", "182740.706000", "182740.709000", "182740.712000", "182740.714000", "182740.717000", "182740.719000", "182740.722000", "182740.724000", "182740.727000", "182740.730000", "182740.732000", "182740.735000", "182740.738000", "182759.920000", "182759.923000", "182759.925000", "182759.928000", "182759.930000", "182759.933000", "182759.935000", "182759.938000", "182759.940000", "182759.953000", "182759.955000", "182759.958000", "182759.960000", "182759.962000", "182840.003000", "182840.006000", "182840.008000", "182840.011000", "182840.013000", "182840.016000", "182840.019000", "182840.021000", "182840.023000", "182840.026000", "182840.028000", "182840.031000", "182840.033000", "182840.036000", "182840.038000", "182840.041000", "182840.043000", "182840.046000", "182840.048000", "182840.051000", "182840.053000", "182840.056000", "182840.058000", "182840.061000", "182840.063000", "182840.066000", "182840.068000", "182919.998000", "182920.002000", "182920.005000", "182920.007000", "182920.010000", "182920.012000", "182920.015000", "182920.017000", "182920.020000", "182920.022000", "182920.025000", "182920.027000", "182920.030000", "182920.032000", "182920.035000", "182920.037000", "182920.039000", "182920.042000", "182920.044000", "182920.047000", "182920.049000", "182920.052000", "182920.054000", "182920.057000", "182920.059000", "182920.062000", "182920.064000", "182942.114000", "182942.117000", "182942.119000", "182942.122000", "182942.125000", "182942.127000", "182942.130000", "182942.133000", "182942.135000", "182942.138000", "182942.140000", "182942.143000", "182942.145000", "182942.148000", "182942.151000"],
      "InstanceNumber": [1, 2, 3, 4, 5, 6, 7, 8, 9, 10, 11, 12, 13, 14, 15, 16, 17, 18, 19, 20, 21, 22, 23, 24, 25, 26, 27, 28, 29, 30, 31, 32, 33, 34, 35, 36, 37, 38, 39, 40, 41, 42, 43, 44, 45, 46, 47, 48, 49, 50, 51, 52, 53, 54, 55, 56, 57, 58, 59, 60, 61, 62, 63, 64, 65, 66, 67, 68, 69, 70, 71, 72, 73, 74, 75, 76, 77, 78, 79, 80, 81, 82, 83, 84, 85, 86, 87, 88, 89, 90, 91, 92, 93, 94, 95, 96, 97, 98, 99, 100, 101, 102, 103, 104, 105, 106, 107, 108, 109, 110, 111, 112, 113, 114, 115, 116, 117, 118, 119, 120, 121, 122, 123, 124, 125, 126, 127, 128, 129, 130, 131, 132, 133, 134, 135, 136, 137, 138, 139, 140, 141, 142, 143, 144, 145, 146, 147, 148, 149, 150, 151, 152, 153, 154, 155, 156, 157, 158, 159, 160, 161, 162, 163, 164, 165, 166, 167, 168, 169, 170, 171, 172, 173, 174, 175, 176, 177, 178, 179, 180, 181, 182, 183, 184, 185, 186, 187, 188, 189, 190, 191, 192, 193, 194, 195, 196, 197, 198, 199, 200, 201, 202],
      "WindowCenter": [4828.0, 4852.0, 4852.0, 4822.0, 4798.0, 4828.0, 4860.0, 4858.0, 4852.0, 4790.0, 4788.0, 4788.0, 4794.0, 4828.0, 4856.0, 4882.0, 4876.0, 4880.0, 4852.0, 4820.0, 4820.0, 4796.0, 4828.0, 4852.0, 4826.0, 4828.0, 4856.0, 4858.0, 4856.0, 4852.0, 4824.0, 4850.0, 4856.0, 4872.0, 4870.0, 4848.0, 4848.0, 4788.0, 4784.0, 4786.0, 4794.0, 4854.0, 4856.0, 4854.0, 4850.0, 4878.0, 4852.0, 4798.0, 4794.0, 4822.0, 4828.0, 4850.0, 4826.0, 4828.0, 4852.0, 4854.0, 4852.0, 4856.0, 4856.0, 4854.0, 4826.0, 4822.0, 4822.0, 4828.0, 4874.0, 4876.0, 4844.0, 4848.0, 4824.0, 4798.0, 4786.0, 4786.0, 4792.0, 4826.0, 4856.0, 4876.0, 4876.0, 4880.0, 4854.0, 4822.0, 4798.0, 4824.0, 4820.0, 4820.0, 4828.0, 4854.0, 4856.0, 4856.0, 4852.0, 4828.0, 4850.0, 4850.0, 4854.0, 4828.0, 4822.0, 4820.0, 4824.0, 4850.0, 4854.0, 4852.0, 4854.0, 4852.0, 4826.0, 4850.0, 4826.0, 4852.0, 4828.0, 4826.0, 4824.0, 4828.0, 4852.0, 4854.0, 4850.0, 4852.0, 4852.0, 4852.0, 4850.0, 4826.0, 4850.0, 4828.0, 4828.0, 4852.0, 4850.0, 4852.0, 4854.0, 4848.0, 4846.0, 4826.0, 4850.0, 4850.0, 4852.0, 4852.0, 4854.0, 4852.0, 4850.0, 4828.0, 4850.0, 4848.0, 4850.0, 4850.0, 4850.0, 4852.0, 4852.0, 4856.0, 4856.0, 4854.0, 4852.0, 4852.0, 4852.0, 4846.0, 4878.0, 4852.0, 4854.0, 4852.0, 4850.0, 4824.0, 4828.0, 4850.0, 4852.0, 4852.0, 4854.0, 4852.0, 4854.0, 4854.0, 4852.0, 4848.0, 4850.0, 4848.0, 4850.0, 4852.0, 4852.0, 4876.0, 4852.0, 4852.0, 4848.0, 4850.0, 4852.0, 4854.0, 4852.0, 4852.0, 4850.0, 4854.0, 4852.0, 4850.0, 4850.0, 4848.0, 4852.0, 4850.0, 4852.0, 4852.0, 4850.0, 4850.0, 4848.0, 4852.0, 4856.0, 4876.0, 4850.0, 4848.0, 4850.0, 4850.0, 4850.0, 4854.0],
      "WindowWidth": [18598.0, 18628.0, 18628.0, 18590.0, 18556.0, 18588.0, 18636.0, 18638.0, 18628.0, 18556.0, 18552.0, 18548.0, 18554.0, 18588.0, 18626.0, 18672.0, 18666.0, 18668.0, 18620.0, 18588.0, 18586.0, 18560.0, 18596.0, 18632.0, 18588.0, 18594.0, 18632.0, 18636.0, 18636.0, 18626.0, 18596.0, 18630.0, 18640.0, 18680.0, 18674.0, 18642.0, 18630.0, 18546.0, 18566.0, 18558.0, 18556.0, 18626.0, 18634.0, 18642.0, 18636.0, 18674.0, 18626.0, 18552.0, 18560.0, 18586.0, 18594.0, 18622.0, 18596.0, 18590.0, 18630.0, 18630.0, 18634.0, 18642.0, 18644.0, 18638.0, 18592.0, 18588.0, 18586.0, 18594.0, 18674.0, 18682.0, 18644.0, 18640.0, 18594.0, 18558.0, 18552.0, 18560.0, 18552.0, 18592.0, 18638.0, 18668.0, 18666.0, 18666.0, 18624.0, 18590.0, 18554.0, 18594.0, 18592.0, 18584.0, 18598.0, 18634.0, 18638.0, 18642.0, 18632.0, 18598.0, 18628.0, 18628.0, 18634.0, 18598.0, 18592.0, 18586.0, 18594.0, 18628.0, 18636.0, 18632.0, 18630.0, 18636.0, 18600.0, 18630.0, 18590.0, 18626.0, 18598.0, 18600.0, 18596.0, 18594.0, 18636.0, 18636.0, 18636.0, 18632.0, 18632.0, 18634.0, 18632.0, 18594.0, 18628.0, 18598.0, 18602.0, 18634.0, 18634.0, 18636.0, 18638.0, 18632.0, 18628.0, 18604.0, 18634.0, 18630.0, 18632.0, 18642.0, 18638.0, 18634.0, 18628.0, 18604.0, 18638.0, 18630.0, 18634.0, 18634.0, 18632.0, 18636.0, 18634.0, 18638.0, 18642.0, 18642.0, 18638.0, 18636.0, 18632.0, 18632.0, 18674.0, 18644.0, 18642.0, 18632.0, 18630.0, 18602.0, 18598.0, 18632.0, 18638.0, 18640.0, 18642.0, 18638.0, 18642.0, 18642.0, 18638.0, 18632.0, 18638.0, 18630.0, 18634.0, 18636.0, 18646.0, 18674.0, 18640.0, 18634.0, 18628.0, 18632.0, 18632.0, 18644.0, 18636.0, 18636.0, 18634.0, 18640.0, 18636.0, 18632.0, 18636.0, 18640.0, 18638.0, 18634.0, 18636.0, 18638.0, 18632.0, 18636.0, 18634.0, 18640.0, 18646.0, 18676.0, 18638.0, 18636.0, 18636.0, 18642.0, 18642.0, 18642.0]
    },
    "slices": {}
  }
}