{
  "AcquisitionMatrixPE": 104,
  "AcquisitionNumber": 1,
  "AcquisitionTime": "18:31:7.255000",
  "BandwidthPerPixelPhaseEncode": 17.17,
  "BaseResolution": 104,
  "BodyPartExamined": "BRAIN",
  "CoilString": "HC1-7;NC1_2",
  "ConsistencyInfo": "N4_VE11C_LATEST_20160120",
  "ConversionSoftware": "dcm2niix",
  "ConversionSoftwareVersion": "v1.0.20190902",
  "DerivedVendorReportedEchoSpacing": 0.000560011,
  "DeviceSerialNumber": "167006",
  "DwellTime": 2.1e-06,
  "EchoTime": 0.037,
  "EchoTrainLength": 104,
  "EffectiveEchoSpacing": 0.000560011,
  "FlipAngle": 52,
  "ImageComments": "Unaliased_MB4_PE3_LB",
  "ImageOrientationPatientDICOM": [0.995421, 0.0950235, 0.0103982, -0.0832378, 0.915127, -0.394481],
  "ImageType": [
    "ORIGINAL",
    "PRIMARY",
    "P",
    "MB",
    "ND",
    "MOSAIC"
],
  "ImagingFrequency": 123.259,
  "InPlanePhaseEncodingDirectionDICOM": "COL",
  "InstitutionAddress": "Chemin_Queen-Mary_4565_Montreal_District_CA_H3W_1W5",
  "InstitutionName": "IUGM",
  "InstitutionalDepartmentName": "Department",
  "MRAcquisitionType": "2D",
  "MagneticFieldStrength": 3,
  "Manufacturer": "Siemens",
  "ManufacturersModelName": "Prisma_fit",
  "Modality": "MR",
  "MultibandAccelerationFactor": 4,
  "PartialFourier": 1,
  "PatientPosition": "HFS",
  "PercentPhaseFOV": 100,
  "PhaseEncodingDirection": "j",
  "PhaseEncodingSteps": 104,
  "PhaseResolution": 1,
  "PixelBandwidth": 2290,
  "ProcedureStepDescription": "localizers_retinotopy",
  "ProtocolName": "func_task-bars",
  "PulseSequenceDetails": "%CustomerSeq%_cmrr_mbep2d_bold",
  "ReceiveCoilActiveElements": "HC1-7;NC1,2",
  "ReceiveCoilName": "HeadNeck_64",
  "ReconMatrixPE": 104,
  "RepetitionTime": 1.49,
  "SAR": 0.0407345,
  "ScanOptions": "FS",
  "ScanningSequence": "EP",
  "SequenceName": "epfid2d1_104",
  "SequenceVariant": "SK_SS",
  "SeriesDescription": "func_task-bars",
  "SeriesNumber": 17,
  "ShimSetting": [623, -7194, -8827, 610, 67, -12, -50, -15],
  "SliceThickness": 2,
  "SliceTiming": [0, 0.7825, 0.0975, 0.88, 0.195, 0.98, 0.2925, 1.0775, 0.3925, 1.175, 0.49, 1.2725, 0.5875, 1.37, 0.685, 0, 0.7825, 0.0975, 0.88, 0.195, 0.98, 0.2925, 1.0775, 0.3925, 1.175, 0.49, 1.2725, 0.5875, 1.37, 0.685, 0, 0.7825, 0.0975, 0.88, 0.195, 0.98, 0.2925, 1.0775, 0.3925, 1.175, 0.49, 1.2725, 0.5875, 1.37, 0.685, 0, 0.7825, 0.0975, 0.88, 0.195, 0.98, 0.2925, 1.0775, 0.3925, 1.175, 0.49, 1.2725, 0.5875, 1.37, 0.685],
  "SoftwareVersions": "syngo_MR_E11",
  "SpacingBetweenSlices": 2,
  "StationName": "MRC35049",
  "TaskName": "bars",
  "TotalReadoutTime": 0.0576811,
  "TxRefAmp": 252.936,
  "WipMemBlock": "13f5f226-e6ef-4489-9ee4-11cead98e4c3||Sequence: R016 ve11c/master r/e634e98; Dec 19 2017 11:00:25 by eja",
  "dcmmeta_affine": [
    [-1.9908413887023926, -0.16647565364837646, 0.0940011590719223, 111.94192504882812],
    [-0.190047025680542, 1.830253005027771, -0.7836172580718994, -46.84538269042969],
    [0.02079635299742222, 0.7889612317085266, 1.837690830230713, -63.96932601928711],
    [0.0, 0.0, 0.0, 1.0]
],
  "dcmmeta_reorient_transform": [
    [0.0, -1.0, 0.0, 103.0],
    [1.0, 0.0, 0.0, 0.0],
    [0.0, 0.0, 1.0, 0.0],
    [0.0, 0.0, 0.0, 1.0]
],
  "dcmmeta_shape": [104, 104, 60, 202],
  "dcmmeta_slice_dim": 2,
  "dcmmeta_version": 0.6,
  "global": {
    "const": {
      "AcquisitionMatrix": [104, 0, 0, 104],
      "AngioFlag": "N",
      "BitsAllocated": 16,
      "BitsStored": 16,
      "BodyPartExamined": "BRAIN",
      "Columns": 832,
      "EchoNumbers": 1,
      "EchoTime": 37.0,
      "EchoTrainLength": 104,
      "FlipAngle": 52.0,
      "HighBit": 15,
      "ImageOrientationPatient": [0.99542071999218, 0.09502351361747, 0.01039817628458, -0.0832378262699, 0.91512650391556, -0.3944806029568],
      "ImagePositionPatient": [-758.86407741313, -877.0598887452, 296.90568482623],
      "ImageType": [
        "ORIGINAL",
        "PRIMARY",
        "P",
        "MB",
        "ND",
        "MOSAIC"
],
      "ImagedNucleus": "1H",
      "ImagingFrequency": 123.258931,
      "InPlanePhaseEncodingDirection": "COL",
      "LargestImagePixelValue": 4095,
      "MRAcquisitionType": "2D",
      "MagneticFieldStrength": 3.0,
      "Manufacturer": "SIEMENS",
      "ManufacturerModelName": "Prisma_fit",
      "Modality": "MR",
      "NumberOfAverages": 1.0,
      "NumberOfPhaseEncodingSteps": 104,
      "PercentPhaseFieldOfView": 100.0,
      "PercentSampling": 100.0,
      "PerformedProcedureStepStartTime": "181314.693000",
      "PhotometricInterpretation": "MONOCHROME2",
      "PixelBandwidth": 2290.0,
      "PixelRepresentation": 0,
      "PixelSpacing": [2.0, 2.0],
      "ProtocolName": "func_task-bars",
      "RepetitionTime": 1490.0,
      "RescaleIntercept": -4096.0,
      "RescaleSlope": 2.0,
      "RescaleType": "US",
      "Rows": 832,
      "SAR": 0.04073445165891,
      "SamplesPerPixel": 1,
      "ScanOptions": "FS",
      "ScanningSequence": "EP",
      "SequenceName": "epfid2d1_104",
      "SequenceVariant": [
        "SK",
        "SS"
],
      "SeriesDescription": "func_task-bars",
      "SeriesNumber": 17,
      "SeriesTime": "183236.693000",
      "SliceLocation": -35.162161525995,
      "SliceThickness": 2.0,
      "SmallestImagePixelValue": 0,
      "SoftwareVersions": "syngo MR E11",
      "SpacingBetweenSlices": 1.9999999687222,
      "SpecificCharacterSet": "ISO_IR 100",
      "StudyID": "1",
      "StudyTime": "181314.604000",
      "TransmitCoilName": "Body",
      "VariableFlipAngleFlag": "N",
      "WindowCenterWidthExplanation": "Algo1",
      "dBdt": 0.0},
    "slices": {}
  },
  "time": {
    "samples": {
      "AcquisitionNumber": [1, 2, 3, 4, 5, 6, 7, 8, 9, 10, 11, 12, 13, 14, 15, 16, 17, 18, 19, 20, 21, 22, 23, 24, 25, 26, 27, 28, 29, 30, 31, 32, 33, 34, 35, 36, 37, 38, 39, 40, 41, 42, 43, 44, 45, 46, 47, 48, 49, 50, 51, 52, 53, 54, 55, 56, 57, 58, 59, 60, 61, 62, 63, 64, 65, 66, 67, 68, 69, 70, 71, 72, 73, 74, 75, 76, 77, 78, 79, 80, 81, 82, 83, 84, 85, 86, 87, 88, 89, 90, 91, 92, 93, 94, 95, 96, 97, 98, 99, 100, 101, 102, 103, 104, 105, 106, 107, 108, 109, 110, 111, 112, 113, 114, 115, 116, 117, 118, 119, 120, 121, 122, 123, 124, 125, 126, 127, 128, 129, 130, 131, 132, 133, 134, 135, 136, 137, 138, 139, 140, 141, 142, 143, 144, 145, 146, 147, 148, 149, 150, 151, 152, 153, 154, 155, 156, 157, 158, 159, 160, 161, 162, 163, 164, 165, 166, 167, 168, 169, 170, 171, 172, 173, 174, 175, 176, 177, 178, 179, 180, 181, 182, 183, 184, 185, 186, 187, 188, 189, 190, 191, 192, 193, 194, 195, 196, 197, 198, 199, 200, 201, 202],
      "AcquisitionTime": ["183107.255000", "183108.745000", "183110.235000", "183111.725000", "183113.215000", "183114.705000", "183116.195000", "183117.685000", "183119.175000", "183120.665000", "183122.155000", "183123.645000", "183125.135000", "183126.625000", "183128.115000", "183129.605000", "183131.095000", "183132.585000", "183134.075000", "183135.565000", "183137.055000", "183138.545000", "183140.035000", "183141.525000", "183143.015000", "183144.505000", "183145.995000", "183147.485000", "183148.975000", "183150.465000", "183151.955000", "183153.445000", "183154.935000", "183156.425000", "183157.915000", "183159.405000", "183200.895000", "183202.385000", "183203.875000", "183205.365000", "183206.855000", "183208.345000", "183209.835000", "183211.325000", "183212.815000", "183214.305000", "183215.795000", "183217.285000", "183218.775000", "183220.265000", "183221.755000", "183223.245000", "183224.735000", "183226.225000", "183227.715000", "183229.205000", "183230.695000", "183232.185000", "183233.675000", "183235.165000", "183236.655000", "183238.145000", "183239.635000", "183241.125000", "183242.615000", "183244.105000", "183245.595000", "183247.085000", "183248.575000", "183250.065000", "183251.555000", "183253.045000", "183254.535000", "183256.025000", "183257.515000", "183259.005000", "183300.495000", "183301.985000", "183303.475000", "183304.965000", "183306.455000", "183307.945000", "183309.435000", "183310.925000", "183312.415000", "183313.905000", "183315.395000", "183316.885000", "183318.375000", "183319.865000", "183321.355000", "183322.845000", "183324.335000", "183325.825000", "183327.315000", "183328.805000", "183330.295000", "183331.785000", "183333.275000", "183334.765000", "183336.255000", "183337.745000", "183339.235000", "183340.725000", "183342.215000", "183343.705000", "183345.195000", "183346.685000", "183348.175000", "183349.665000", "183351.155000", "183352.645000", "183354.135000", "183355.625000", "183357.115000", "183358.605000", "183400.095000", "183401.585000", "183403.075000", "183404.565000", "183406.055000", "183407.545000", "183409.035000", "183410.525000", "183412.015000", "183413.505000", "183414.995000", "183416.485000", "183417.975000", "183419.465000", "183420.955000", "183422.445000", "183423.935000", "183425.425000", "183426.915000", "183428.405000", "183429.895000", "183431.385000", "183432.875000", "183434.365000", "183435.855000", "183437.345000", "183438.835000", "183440.325000", "183441.815000", "183443.305000", "183444.795000", "183446.285000", "183447.775000", "183449.265000", "183450.755000", "183452.245000", "183453.735000", "183455.225000", "183456.715000", "183458.205000", "183459.695000", "183501.185000", "183502.675000", "183504.165000", "183505.655000", "183507.145000", "183508.635000", "183510.125000", "183511.615000", "183513.105000", "183514.595000", "183516.085000", "183517.575000", "183519.065000", "183520.555000", "183522.045000", "183523.535000", "183525.025000", "183526.515000", "183528.005000", "183529.495000", "183530.985000", "183532.475000", "183533.965000", "183535.455000", "183536.945000", "183538.435000", "183539.925000", "183541.415000", "183542.905000", "183544.395000", "183545.885000", "183547.375000", "183548.865000", "183550.355000", "183551.845000", "183553.335000", "183554.825000", "183556.315000", "183557.805000", "183559.295000", "183600.785000", "183602.275000", "183603.765000", "183605.255000", "183606.745000"],
      "ContentTime": ["183236.695000", "183236.698000", "183236.700000", "183236.703000", "183236.705000", "183236.708000", "183236.710000", "183236.713000", "183236.715000", "183236.718000", "183236.720000", "183236.723000", "183236.726000", "183236.728000", "183236.731000", "183236.733000", "183236.736000", "183236.738000", "183236.741000", "183236.743000", "183236.746000", "183236.748000", "183236.751000", "183236.753000", "183236.756000", "183236.762000", "183236.765000", "183236.767000", "183236.769000", "183236.772000", "183236.775000", "183236.777000", "183236.779000", "183236.782000", "183236.785000", "183236.787000", "183256.567000", "183256.569000", "183256.572000", "183256.574000", "183256.577000", "183256.579000", "183256.582000", "183256.584000", "183256.587000", "183256.589000", "183256.592000", "183256.594000", "183256.597000", "183256.599000", "183256.601000", "183256.604000", "183256.606000", "183256.609000", "183256.611000", "183256.614000", "183316.566000", "183316.569000", "183316.571000", "183316.574000", "183316.577000", "183316.579000", "183316.581000", "183316.584000", "183316.587000", "183316.589000", "183316.591000", "183316.594000", "183316.596000", "183316.599000", "183316.601000", "183316.604000", "183316.607000", "183316.610000", "183316.612000", "183316.615000", "183336.577000", "183336.580000", "183336.582000", "183336.585000", "183336.587000", "183336.590000", "183336.592000", "183336.595000", "183336.597000", "183336.600000", "183336.602000", "183336.605000", "183336.607000", "183336.610000", "183336.612000", "183336.615000", "183336.617000", "183336.620000", "183336.622000", "183336.625000", "183336.627000", "183416.630000", "183416.633000", "183416.635000", "183416.638000", "183416.640000", "183416.643000", "183416.645000", "183416.648000", "183416.650000", "183416.653000", "183416.655000", "183416.658000", "183416.660000", "183416.663000", "183416.665000", "183416.668000", "183416.670000", "183416.673000", "183416.675000", "183416.678000", "183416.680000", "183416.683000", "183416.685000", "183416.688000", "183416.690000", "183416.693000", "183416.696000", "183416.698000", "183416.701000", "183456.598000", "183456.600000", "183456.603000", "183456.605000", "183456.608000", "183456.610000", "183456.613000", "183456.615000", "183456.618000", "183456.620000", "183456.623000", "183456.625000", "183456.628000", "183456.630000", "183456.633000", "183456.635000", "183456.638000", "183456.640000", "183456.643000", "183456.646000", "183456.648000", "183456.651000", "183456.653000", "183456.656000", "183456.658000", "183456.661000", "183456.663000", "183536.595000", "183536.597000", "183536.600000", "183536.603000", "183536.605000", "183536.607000", "183536.610000", "183536.613000", "183536.615000", "183536.618000", "183536.620000", "183536.623000", "183536.625000", "183536.628000", "183536.630000", "183536.637000", "183536.640000", "183536.642000", "183536.645000", "183536.647000", "183536.650000", "183536.652000", "183536.655000", "183536.658000", "183536.660000", "183536.662000", "183536.665000", "183608.804000", "183608.806000", "183608.813000", "183608.816000", "183608.818000", "183608.821000", "183608.823000", "183608.826000", "183608.828000", "183608.831000", "183608.833000", "183608.836000", "183608.838000", "183608.841000", "183608.843000", "183608.846000", "183608.848000", "183608.851000", "183608.853000", "183608.856000", "183608.858000", "183608.861000"],
      "InstanceCreationTime": ["183236.695000", "183236.698000", "183236.700000", "183236.703000", "183236.705000", "183236.708000", "183236.710000", "183236.713000", "183236.715000", "183236.718000", "183236.720000", "183236.723000", "183236.726000", "183236.728000", "183236.731000", "183236.733000", "183236.736000", "183236.738000", "183236.741000", "183236.743000", "183236.746000", "183236.748000", "183236.751000", "183236.753000", "183236.756000", "183236.762000", "183236.765000", "183236.767000", "183236.769000", "183236.772000", "183236.775000", "183236.777000", "183236.779000", "183236.782000", "183236.785000", "183236.787000", "183256.567000", "183256.569000", "183256.572000", "183256.574000", "183256.577000", "183256.579000", "183256.582000", "183256.584000", "183256.587000", "183256.589000", "183256.592000", "183256.594000", "183256.597000", "183256.599000", "183256.601000", "183256.604000", "183256.606000", "183256.609000", "183256.611000", "183256.614000", "183316.566000", "183316.569000", "183316.571000", "183316.574000", "183316.577000", "183316.579000", "183316.581000", "183316.584000", "183316.587000", "183316.589000", "183316.591000", "183316.594000", "183316.596000", "183316.599000", "183316.601000", "183316.604000", "183316.607000", "183316.610000", "183316.612000", "183316.615000", "183336.577000", "183336.580000", "183336.582000", "183336.585000", "183336.587000", "183336.590000", "183336.592000", "183336.595000", "183336.597000", "183336.600000", "183336.602000", "183336.605000", "183336.607000", "183336.610000", "183336.612000", "183336.615000", "183336.617000", "183336.620000", "183336.622000", "183336.625000", "183336.627000", "183416.630000", "183416.633000", "183416.635000", "183416.638000", "183416.640000", "183416.643000", "183416.645000", "183416.648000", "183416.650000", "183416.653000", "183416.655000", "183416.658000", "183416.660000", "183416.663000", "183416.665000", "183416.668000", "183416.670000", "183416.673000", "183416.675000", "183416.678000", "183416.680000", "183416.683000", "183416.685000", "183416.688000", "183416.690000", "183416.693000", "183416.696000", "183416.698000", "183416.701000", "183456.598000", "183456.600000", "183456.603000", "183456.605000", "183456.608000", "183456.610000", "183456.613000", "183456.615000", "183456.618000", "183456.620000", "183456.623000", "183456.625000", "183456.628000", "183456.630000", "183456.633000", "183456.635000", "183456.638000", "183456.640000", "183456.643000", "183456.646000", "183456.648000", "183456.651000", "183456.653000", "183456.656000", "183456.658000", "183456.661000", "183456.663000", "183536.595000", "183536.597000", "183536.600000", "183536.603000", "183536.605000", "183536.607000", "183536.610000", "183536.613000", "183536.615000", "183536.618000", "183536.620000", "183536.623000", "183536.625000", "183536.628000", "183536.630000", "183536.637000", "183536.640000", "183536.642000", "183536.645000", "183536.647000", "183536.650000", "183536.652000", "183536.655000", "183536.658000", "183536.660000", "183536.662000", "183536.665000", "183608.804000", "183608.806000", "183608.813000", "183608.816000", "183608.818000", "183608.821000", "183608.823000", "183608.826000", "183608.828000", "183608.831000", "183608.833000", "183608.836000", "183608.838000", "183608.841000", "183608.843000", "183608.846000", "183608.848000", "183608.851000", "183608.853000", "183608.856000", "183608.858000", "183608.861000"],
      "InstanceNumber": [1, 2, 3, 4, 5, 6, 7, 8, 9, 10, 11, 12, 13, 14, 15, 16, 17, 18, 19, 20, 21, 22, 23, 24, 25, 26, 27, 28, 29, 30, 31, 32, 33, 34, 35, 36, 37, 38, 39, 40, 41, 42, 43, 44, 45, 46, 47, 48, 49, 50, 51, 52, 53, 54, 55, 56, 57, 58, 59, 60, 61, 62, 63, 64, 65, 66, 67, 68, 69, 70, 71, 72, 73, 74, 75, 76, 77, 78, 79, 80, 81, 82, 83, 84, 85, 86, 87, 88, 89, 90, 91, 92, 93, 94, 95, 96, 97, 98, 99, 100, 101, 102, 103, 104, 105, 106, 107, 108, 109, 110, 111, 112, 113, 114, 115, 116, 117, 118, 119, 120, 121, 122, 123, 124, 125, 126, 127, 128, 129, 130, 131, 132, 133, 134, 135, 136, 137, 138, 139, 140, 141, 142, 143, 144, 145, 146, 147, 148, 149, 150, 151, 152, 153, 154, 155, 156, 157, 158, 159, 160, 161, 162, 163, 164, 165, 166, 167, 168, 169, 170, 171, 172, 173, 174, 175, 176, 177, 178, 179, 180, 181, 182, 183, 184, 185, 186, 187, 188, 189, 190, 191, 192, 193, 194, 195, 196, 197, 198, 199, 200, 201, 202],
      "WindowCenter": [4822.0, 4822.0, 4824.0, 4822.0, 4820.0, 4820.0, 4820.0, 4818.0, 4820.0, 4824.0, 4822.0, 4820.0, 4822.0, 4820.0, 4822.0, 4820.0, 4818.0, 4820.0, 4820.0, 4826.0, 4820.0, 4818.0, 4818.0, 4822.0, 4798.0, 4826.0, 4824.0, 4824.0, 4820.0, 4820.0, 4820.0, 4820.0, 4820.0, 4820.0, 4826.0, 4824.0, 4822.0, 4820.0, 4822.0, 4822.0, 4818.0, 4818.0, 4818.0, 4820.0, 4822.0, 4820.0, 4822.0, 4826.0, 4824.0, 4816.0, 4816.0, 4820.0, 4798.0, 4820.0, 4794.0, 4820.0, 4822.0, 4822.0, 4850.0, 4854.0, 4820.0, 4800.0, 4794.0, 4794.0, 4818.0, 4820.0, 4820.0, 4820.0, 4826.0, 4824.0, 4824.0, 4824.0, 4818.0, 4798.0, 4794.0, 4822.0, 4822.0, 4818.0, 4820.0, 4818.0, 4820.0, 4820.0, 4824.0, 4798.0, 4824.0, 4820.0, 4796.0, 4822.0, 4796.0, 4820.0, 4824.0, 4824.0, 4826.0, 4820.0, 4820.0, 4818.0, 4796.0, 4822.0, 4822.0, 4820.0, 4824.0, 4822.0, 4824.0, 4824.0, 4820.0, 4818.0, 4822.0, 4824.0, 4820.0, 4816.0, 4822.0, 4822.0, 4822.0, 4822.0, 4822.0, 4820.0, 4822.0, 4818.0, 4818.0, 4820.0, 4818.0, 4818.0, 4818.0, 4826.0, 4824.0, 4824.0, 4822.0, 4820.0, 4818.0, 4816.0, 4818.0, 4818.0, 4796.0, 4818.0, 4824.0, 4828.0, 4828.0, 4824.0, 4824.0, 4816.0, 4818.0, 4794.0, 4818.0, 4818.0, 4818.0, 4826.0, 4822.0, 4824.0, 4822.0, 4820.0, 4822.0, 4820.0, 4820.0, 4818.0, 4820.0, 4816.0, 4820.0, 4824.0, 4822.0, 4822.0, 4820.0, 4820.0, 4820.0, 4820.0, 4798.0, 4820.0, 4822.0, 4822.0, 4822.0, 4826.0, 4820.0, 4824.0, 4822.0, 4818.0, 4798.0, 4828.0, 4822.0, 4820.0, 4824.0, 4824.0, 4824.0, 4822.0, 4818.0, 4820.0, 4822.0, 4820.0, 4820.0, 4822.0, 4822.0, 4794.0, 4820.0, 4820.0, 4822.0, 4818.0, 4822.0, 4824.0, 4828.0, 4826.0, 4824.0, 4798.0, 4822.0, 4796.0],
      "WindowWidth": [18590.0, 18588.0, 18590.0, 18590.0, 18594.0, 18590.0, 18590.0, 18590.0, 18590.0, 18594.0, 18594.0, 18588.0, 18592.0, 18592.0, 18592.0, 18594.0, 18592.0, 18592.0, 18594.0, 18598.0, 18594.0, 18594.0, 18590.0, 18590.0, 18558.0, 18596.0, 18600.0, 18602.0, 18592.0, 18590.0, 18592.0, 18590.0, 18590.0, 18594.0, 18598.0, 18590.0, 18596.0, 18590.0, 18598.0, 18596.0, 18594.0, 18588.0, 18594.0, 18590.0, 18590.0, 18592.0, 18594.0, 18602.0, 18596.0, 18590.0, 18588.0, 18592.0, 18564.0, 18594.0, 18560.0, 18592.0, 18596.0, 18594.0, 18630.0, 18640.0, 18592.0, 18566.0, 18560.0, 18560.0, 18592.0, 18592.0, 18594.0, 18594.0, 18598.0, 18594.0, 18592.0, 18596.0, 18594.0, 18562.0, 18560.0, 18594.0, 18594.0, 18588.0, 18586.0, 18594.0, 18594.0, 18586.0, 18594.0, 18566.0, 18598.0, 18592.0, 18562.0, 18590.0, 18564.0, 18590.0, 18596.0, 18604.0, 18602.0, 18594.0, 18594.0, 18594.0, 18562.0, 18598.0, 18592.0, 18592.0, 18596.0, 18600.0, 18600.0, 18602.0, 18594.0, 18590.0, 18596.0, 18598.0, 18594.0, 18590.0, 18602.0, 18602.0, 18596.0, 18600.0, 18606.0, 18596.0, 18598.0, 18592.0, 18594.0, 18598.0, 18592.0, 18592.0, 18590.0, 18598.0, 18592.0, 18600.0, 18590.0, 18592.0, 18592.0, 18596.0, 18600.0, 18594.0, 18564.0, 18592.0, 18598.0, 18604.0, 18602.0, 18598.0, 18602.0, 18590.0, 18594.0, 18560.0, 18592.0, 18594.0, 18594.0, 18600.0, 18598.0, 18596.0, 18598.0, 18596.0, 18594.0, 18596.0, 18594.0, 18592.0, 18598.0, 18588.0, 18598.0, 18600.0, 18590.0, 18596.0, 18594.0, 18592.0, 18594.0, 18594.0, 18564.0, 18592.0, 18596.0, 18596.0, 18592.0, 18594.0, 18594.0, 18594.0, 18594.0, 18592.0, 18562.0, 18600.0, 18592.0, 18594.0, 18594.0, 18598.0, 18592.0, 18594.0, 18586.0, 18590.0, 18594.0, 18592.0, 18594.0, 18592.0, 18592.0, 18558.0, 18596.0, 18588.0, 18594.0, 18586.0, 18592.0, 18600.0, 18598.0, 18600.0, 18592.0, 18560.0, 18592.0, 18562.0]
    },
    "slices": {}
  }
}