{
  "AcquisitionMatrixPE": 104,
  "AcquisitionNumber": 1,
  "AcquisitionTime": "18:31:7.255000",
  "BandwidthPerPixelPhaseEncode": 17.17,
  "BaseResolution": 104,
  "BodyPartExamined": "BRAIN",
  "CoilString": "HC1-7;NC1_2",
  "ConsistencyInfo": "N4_VE11C_LATEST_20160120",
  "ConversionSoftware": "dcm2niix",
  "ConversionSoftwareVersion": "v1.0.20190902",
  "DerivedVendorReportedEchoSpacing": 0.000560011,
  "DeviceSerialNumber": "167006",
  "DwellTime": 2.1e-06,
  "EchoTime": 0.037,
  "EchoTrainLength": 104,
  "EffectiveEchoSpacing": 0.000560011,
  "FlipAngle": 52,
  "ImageComments": "Unaliased_MB4_PE3_LB",
  "ImageOrientationPatientDICOM": [0.995421, 0.0950235, 0.0103982, -0.0832378, 0.915127, -0.394481],
  "ImageType": [
    "ORIGINAL",
    "PRIMARY",
    "M",
    "MB",
    "ND",
    "MOSAIC"
],
  "ImagingFrequency": 123.259,
  "InPlanePhaseEncodingDirectionDICOM": "COL",
  "InstitutionAddress": "Chemin_Queen-Mary_4565_Montreal_District_CA_H3W_1W5",
  "InstitutionName": "IUGM",
  "InstitutionalDepartmentName": "Department",
  "MRAcquisitionType": "2D",
  "MagneticFieldStrength": 3,
  "Manufacturer": "Siemens",
  "ManufacturersModelName": "Prisma_fit",
  "Modality": "MR",
  "MultibandAccelerationFactor": 4,
  "PartialFourier": 1,
  "PatientPosition": "HFS",
  "PercentPhaseFOV": 100,
  "PhaseEncodingDirection": "j",
  "PhaseEncodingSteps": 104,
  "PhaseResolution": 1,
  "PixelBandwidth": 2290,
  "ProcedureStepDescription": "localizers_retinotopy",
  "ProtocolName": "func_task-bars",
  "PulseSequenceDetails": "%CustomerSeq%_cmrr_mbep2d_bold",
  "ReceiveCoilActiveElements": "HC1-7;NC1,2",
  "ReceiveCoilName": "HeadNeck_64",
  "ReconMatrixPE": 104,
  "RepetitionTime": 1.49,
  "SAR": 0.0407345,
  "ScanOptions": "FS",
  "ScanningSequence": "EP",
  "SequenceName": "epfid2d1_104",
  "SequenceVariant": "SK_SS",
  "SeriesDescription": "func_task-bars",
  "SeriesNumber": 16,
  "ShimSetting": [623, -7194, -8827, 610, 67, -12, -50, -15],
  "SliceThickness": 2,
  "SliceTiming": [0, 0.7825, 0.0975, 0.88, 0.195, 0.98, 0.2925, 1.0775, 0.3925, 1.175, 0.49, 1.2725, 0.5875, 1.37, 0.685, 0, 0.7825, 0.0975, 0.88, 0.195, 0.98, 0.2925, 1.0775, 0.3925, 1.175, 0.49, 1.2725, 0.5875, 1.37, 0.685, 0, 0.7825, 0.0975, 0.88, 0.195, 0.98, 0.2925, 1.0775, 0.3925, 1.175, 0.49, 1.2725, 0.5875, 1.37, 0.685, 0, 0.7825, 0.0975, 0.88, 0.195, 0.98, 0.2925, 1.0775, 0.3925, 1.175, 0.49, 1.2725, 0.5875, 1.37, 0.685],
  "SoftwareVersions": "syngo_MR_E11",
  "SpacingBetweenSlices": 2,
  "StationName": "MRC35049",
  "TaskName": "bars",
  "TotalReadoutTime": 0.0576811,
  "TxRefAmp": 252.936,
  "WipMemBlock": "13f5f226-e6ef-4489-9ee4-11cead98e4c3||Sequence: R016 ve11c/master r/e634e98; Dec 19 2017 11:00:25 by eja",
  "dcmmeta_affine": [
    [-1.9908413887023926, -0.16647565364837646, 0.0940011590719223, 111.94192504882812],
    [-0.190047025680542, 1.830253005027771, -0.7836172580718994, -46.84538269042969],
    [0.02079635299742222, 0.7889612317085266, 1.837690830230713, -63.96932601928711],
    [0.0, 0.0, 0.0, 1.0]
],
  "dcmmeta_reorient_transform": [
    [0.0, -1.0, 0.0, 103.0],
    [1.0, 0.0, 0.0, 0.0],
    [0.0, 0.0, 1.0, 0.0],
    [0.0, 0.0, 0.0, 1.0]
],
  "dcmmeta_shape": [104, 104, 60, 202],
  "dcmmeta_slice_dim": 2,
  "dcmmeta_version": 0.6,
  "global": {
    "const": {
      "AcquisitionMatrix": [104, 0, 0, 104],
      "AngioFlag": "N",
      "BitsAllocated": 16,
      "BitsStored": 16,
      "BodyPartExamined": "BRAIN",
      "Columns": 832,
      "EchoNumbers": 1,
      "EchoTime": 37.0,
      "EchoTrainLength": 104,
      "FlipAngle": 52.0,
      "HighBit": 15,
      "ImageOrientationPatient": [0.99542071999218, 0.09502351361747, 0.01039817628458, -0.0832378262699, 0.91512650391556, -0.3944806029568],
      "ImagePositionPatient": [-758.86407741313, -877.0598887452, 296.90568482623],
      "ImageType": [
        "ORIGINAL",
        "PRIMARY",
        "M",
        "MB",
        "ND",
        "MOSAIC"
],
      "ImagedNucleus": "1H",
      "ImagingFrequency": 123.258931,
      "InPlanePhaseEncodingDirection": "COL",
      "MRAcquisitionType": "2D",
      "MagneticFieldStrength": 3.0,
      "Manufacturer": "SIEMENS",
      "ManufacturerModelName": "Prisma_fit",
      "Modality": "MR",
      "NumberOfAverages": 1.0,
      "NumberOfPhaseEncodingSteps": 104,
      "PercentPhaseFieldOfView": 100.0,
      "PercentSampling": 100.0,
      "PerformedProcedureStepStartTime": "181314.693000",
      "PhotometricInterpretation": "MONOCHROME2",
      "PixelBandwidth": 2290.0,
      "PixelRepresentation": 0,
      "PixelSpacing": [2.0, 2.0],
      "ProtocolName": "func_task-bars",
      "RepetitionTime": 1490.0,
      "Rows": 832,
      "SAR": 0.04073445165891,
      "SamplesPerPixel": 1,
      "ScanOptions": "FS",
      "ScanningSequence": "EP",
      "SequenceName": "epfid2d1_104",
      "SequenceVariant": [
        "SK",
        "SS"
],
      "SeriesDescription": "func_task-bars",
      "SeriesNumber": 16,
      "SeriesTime": "183236.500000",
      "SliceLocation": -35.162161525995,
      "SliceThickness": 2.0,
      "SmallestImagePixelValue": 0,
      "SoftwareVersions": "syngo MR E11",
      "SpacingBetweenSlices": 1.9999999687222,
      "SpecificCharacterSet": "ISO_IR 100",
      "StudyID": "1",
      "StudyTime": "181314.604000",
      "TransmitCoilName": "Body",
      "VariableFlipAngleFlag": "N",
      "WindowCenterWidthExplanation": "Algo1",
      "dBdt": 0.0},
    "slices": {}
  },
  "time": {
    "samples": {
      "AcquisitionNumber": [1, 2, 3, 4, 5, 6, 7, 8, 9, 10, 11, 12, 13, 14, 15, 16, 17, 18, 19, 20, 21, 22, 23, 24, 25, 26, 27, 28, 29, 30, 31, 32, 33, 34, 35, 36, 37, 38, 39, 40, 41, 42, 43, 44, 45, 46, 47, 48, 49, 50, 51, 52, 53, 54, 55, 56, 57, 58, 59, 60, 61, 62, 63, 64, 65, 66, 67, 68, 69, 70, 71, 72, 73, 74, 75, 76, 77, 78, 79, 80, 81, 82, 83, 84, 85, 86, 87, 88, 89, 90, 91, 92, 93, 94, 95, 96, 97, 98, 99, 100, 101, 102, 103, 104, 105, 106, 107, 108, 109, 110, 111, 112, 113, 114, 115, 116, 117, 118, 119, 120, 121, 122, 123, 124, 125, 126, 127, 128, 129, 130, 131, 132, 133, 134, 135, 136, 137, 138, 139, 140, 141, 142, 143, 144, 145, 146, 147, 148, 149, 150, 151, 152, 153, 154, 155, 156, 157, 158, 159, 160, 161, 162, 163, 164, 165, 166, 167, 168, 169, 170, 171, 172, 173, 174, 175, 176, 177, 178, 179, 180, 181, 182, 183, 184, 185, 186, 187, 188, 189, 190, 191, 192, 193, 194, 195, 196, 197, 198, 199, 200, 201, 202],
      "AcquisitionTime": ["183107.255000", "183108.745000", "183110.235000", "183111.725000", "183113.215000", "183114.705000", "183116.195000", "183117.685000", "183119.175000", "183120.665000", "183122.155000", "183123.645000", "183125.135000", "183126.625000", "183128.115000", "183129.605000", "183131.095000", "183132.585000", "183134.075000", "183135.565000", "183137.055000", "183138.545000", "183140.035000", "183141.525000", "183143.015000", "183144.505000", "183145.995000", "183147.485000", "183148.975000", "183150.465000", "183151.955000", "183153.445000", "183154.935000", "183156.425000", "183157.915000", "183159.405000", "183200.895000", "183202.385000", "183203.875000", "183205.365000", "183206.855000", "183208.345000", "183209.835000", "183211.325000", "183212.815000", "183214.305000", "183215.795000", "183217.285000", "183218.775000", "183220.265000", "183221.755000", "183223.245000", "183224.735000", "183226.225000", "183227.715000", "183229.205000", "183230.695000", "183232.185000", "183233.675000", "183235.165000", "183236.655000", "183238.145000", "183239.635000", "183241.125000", "183242.615000", "183244.105000", "183245.595000", "183247.085000", "183248.575000", "183250.065000", "183251.555000", "183253.045000", "183254.535000", "183256.025000", "183257.515000", "183259.005000", "183300.495000", "183301.985000", "183303.475000", "183304.965000", "183306.455000", "183307.945000", "183309.435000", "183310.925000", "183312.415000", "183313.905000", "183315.395000", "183316.885000", "183318.375000", "183319.865000", "183321.355000", "183322.845000", "183324.335000", "183325.825000", "183327.315000", "183328.805000", "183330.295000", "183331.785000", "183333.275000", "183334.765000", "183336.255000", "183337.745000", "183339.235000", "183340.725000", "183342.215000", "183343.705000", "183345.195000", "183346.685000", "183348.175000", "183349.665000", "183351.155000", "183352.645000", "183354.135000", "183355.625000", "183357.115000", "183358.605000", "183400.095000", "183401.585000", "183403.075000", "183404.565000", "183406.055000", "183407.545000", "183409.035000", "183410.525000", "183412.015000", "183413.505000", "183414.995000", "183416.485000", "183417.975000", "183419.465000", "183420.955000", "183422.445000", "183423.935000", "183425.425000", "183426.915000", "183428.405000", "183429.895000", "183431.385000", "183432.875000", "183434.365000", "183435.855000", "183437.345000", "183438.835000", "183440.325000", "183441.815000", "183443.305000", "183444.795000", "183446.285000", "183447.775000", "183449.265000", "183450.755000", "183452.245000", "183453.735000", "183455.225000", "183456.715000", "183458.205000", "183459.695000", "183501.185000", "183502.675000", "183504.165000", "183505.655000", "183507.145000", "183508.635000", "183510.125000", "183511.615000", "183513.105000", "183514.595000", "183516.085000", "183517.575000", "183519.065000", "183520.555000", "183522.045000", "183523.535000", "183525.025000", "183526.515000", "183528.005000", "183529.495000", "183530.985000", "183532.475000", "183533.965000", "183535.455000", "183536.945000", "183538.435000", "183539.925000", "183541.415000", "183542.905000", "183544.395000", "183545.885000", "183547.375000", "183548.865000", "183550.355000", "183551.845000", "183553.335000", "183554.825000", "183556.315000", "183557.805000", "183559.295000", "183600.785000", "183602.275000", "183603.765000", "183605.255000", "183606.745000"],
      "ContentTime": ["183236.503000", "183236.507000", "183236.510000", "183236.513000", "183236.517000", "183236.520000", "183236.523000", "183236.526000", "183236.530000", "183236.533000", "183236.536000", "183236.540000", "183236.543000", "183236.546000", "183236.550000", "183236.553000", "183236.556000", "183236.559000", "183236.563000", "183236.566000", "183236.569000", "183236.587000", "183236.591000", "183236.594000", "183236.597000", "183236.601000", "183236.604000", "183236.607000", "183236.610000", "183236.614000", "183236.617000", "183236.620000", "183236.624000", "183236.627000", "183236.636000", "183236.640000", "183256.456000", "183256.460000", "183256.463000", "183256.466000", "183256.470000", "183256.473000", "183256.476000", "183256.479000", "183256.483000", "183256.486000", "183256.489000", "183256.492000", "183256.496000", "183256.499000", "183256.502000", "183256.505000", "183256.509000", "183256.512000", "183256.515000", "183256.519000", "183316.457000", "183316.461000", "183316.464000", "183316.467000", "183316.471000", "183316.474000", "183316.477000", "183316.480000", "183316.484000", "183316.487000", "183316.490000", "183316.494000", "183316.497000", "183316.500000", "183316.503000", "183316.507000", "183316.510000", "183316.513000", "183316.517000", "183316.520000", "183336.457000", "183336.461000", "183336.464000", "183336.467000", "183336.471000", "183336.474000", "183336.477000", "183336.480000", "183336.484000", "183336.487000", "183336.490000", "183336.494000", "183336.498000", "183336.501000", "183336.505000", "183336.508000", "183336.511000", "183336.514000", "183336.518000", "183336.521000", "183336.524000", "183416.457000", "183416.461000", "183416.464000", "183416.468000", "183416.471000", "183416.474000", "183416.477000", "183416.481000", "183416.484000", "183416.487000", "183416.491000", "183416.494000", "183416.497000", "183416.500000", "183416.504000", "183416.507000", "183416.510000", "183416.514000", "183416.517000", "183416.520000", "183416.523000", "183416.527000", "183416.530000", "183416.533000", "183416.537000", "183416.550000", "183416.554000", "183416.557000", "183416.561000", "183456.456000", "183456.460000", "183456.463000", "183456.466000", "183456.470000", "183456.473000", "183456.476000", "183456.479000", "183456.483000", "183456.486000", "183456.489000", "183456.493000", "183456.496000", "183456.499000", "183456.503000", "183456.506000", "183456.509000", "183456.513000", "183456.516000", "183456.520000", "183456.523000", "183456.526000", "183456.530000", "183456.533000", "183456.536000", "183456.540000", "183456.543000", "183536.457000", "183536.461000", "183536.464000", "183536.468000", "183536.471000", "183536.474000", "183536.478000", "183536.481000", "183536.484000", "183536.487000", "183536.491000", "183536.494000", "183536.497000", "183536.500000", "183536.504000", "183536.507000", "183536.510000", "183536.513000", "183536.517000", "183536.520000", "183536.523000", "183536.527000", "183536.530000", "183536.533000", "183536.537000", "183536.540000", "183536.543000", "183608.681000", "183608.685000", "183608.688000", "183608.691000", "183608.700000", "183608.703000", "183608.706000", "183608.709000", "183608.713000", "183608.716000", "183608.719000", "183608.723000", "183608.726000", "183608.730000", "183608.733000", "183608.736000", "183608.740000", "183608.743000", "183608.746000", "183608.749000", "183608.753000", "183608.756000"],
      "InstanceCreationTime": ["183236.503000", "183236.507000", "183236.510000", "183236.513000", "183236.517000", "183236.520000", "183236.523000", "183236.526000", "183236.530000", "183236.533000", "183236.536000", "183236.540000", "183236.543000", "183236.546000", "183236.550000", "183236.553000", "183236.556000", "183236.559000", "183236.563000", "183236.566000", "183236.569000", "183236.587000", "183236.591000", "183236.594000", "183236.597000", "183236.601000", "183236.604000", "183236.607000", "183236.610000", "183236.614000", "183236.617000", "183236.620000", "183236.624000", "183236.627000", "183236.636000", "183236.640000", "183256.456000", "183256.460000", "183256.463000", "183256.466000", "183256.470000", "183256.473000", "183256.476000", "183256.479000", "183256.483000", "183256.486000", "183256.489000", "183256.492000", "183256.496000", "183256.499000", "183256.502000", "183256.505000", "183256.509000", "183256.512000", "183256.515000", "183256.519000", "183316.457000", "183316.461000", "183316.464000", "183316.467000", "183316.471000", "183316.474000", "183316.477000", "183316.480000", "183316.484000", "183316.487000", "183316.490000", "183316.494000", "183316.497000", "183316.500000", "183316.503000", "183316.507000", "183316.510000", "183316.513000", "183316.517000", "183316.520000", "183336.457000", "183336.461000", "183336.464000", "183336.467000", "183336.471000", "183336.474000", "183336.477000", "183336.480000", "183336.484000", "183336.487000", "183336.490000", "183336.494000", "183336.498000", "183336.501000", "183336.505000", "183336.508000", "183336.511000", "183336.514000", "183336.518000", "183336.521000", "183336.524000", "183416.457000", "183416.461000", "183416.464000", "183416.468000", "183416.471000", "183416.474000", "183416.477000", "183416.481000", "183416.484000", "183416.487000", "183416.491000", "183416.494000", "183416.497000", "183416.500000", "183416.504000", "183416.507000", "183416.510000", "183416.514000", "183416.517000", "183416.520000", "183416.523000", "183416.527000", "183416.530000", "183416.533000", "183416.537000", "183416.550000", "183416.554000", "183416.557000", "183416.561000", "183456.456000", "183456.460000", "183456.463000", "183456.466000", "183456.470000", "183456.473000", "183456.476000", "183456.479000", "183456.483000", "183456.486000", "183456.489000", "183456.493000", "183456.496000", "183456.499000", "183456.503000", "183456.506000", "183456.509000", "183456.513000", "183456.516000", "183456.520000", "183456.523000", "183456.526000", "183456.530000", "183456.533000", "183456.536000", "183456.540000", "183456.543000", "183536.457000", "183536.461000", "183536.464000", "183536.468000", "183536.471000", "183536.474000", "183536.478000", "183536.481000", "183536.484000", "183536.487000", "183536.491000", "183536.494000", "183536.497000", "183536.500000", "183536.504000", "183536.507000", "183536.510000", "183536.513000", "183536.517000", "183536.520000", "183536.523000", "183536.527000", "183536.530000", "183536.533000", "183536.537000", "183536.540000", "183536.543000", "183608.681000", "183608.685000", "183608.688000", "183608.691000", "183608.700000", "183608.703000", "183608.706000", "183608.709000", "183608.713000", "183608.716000", "183608.719000", "183608.723000", "183608.726000", "183608.730000", "183608.733000", "183608.736000", "183608.740000", "183608.743000", "183608.746000", "183608.749000", "183608.753000", "183608.756000"],
      "InstanceNumber": [1, 2, 3, 4, 5, 6, 7, 8, 9, 10, 11, 12, 13, 14, 15, 16, 17, 18, 19, 20, 21, 22, 23, 24, 25, 26, 27, 28, 29, 30, 31, 32, 33, 34, 35, 36, 37, 38, 39, 40, 41, 42, 43, 44, 45, 46, 47, 48, 49, 50, 51, 52, 53, 54, 55, 56, 57, 58, 59, 60, 61, 62, 63, 64, 65, 66, 67, 68, 69, 70, 71, 72, 73, 74, 75, 76, 77, 78, 79, 80, 81, 82, 83, 84, 85, 86, 87, 88, 89, 90, 91, 92, 93, 94, 95, 96, 97, 98, 99, 100, 101, 102, 103, 104, 105, 106, 107, 108, 109, 110, 111, 112, 113, 114, 115, 116, 117, 118, 119, 120, 121, 122, 123, 124, 125, 126, 127, 128, 129, 130, 131, 132, 133, 134, 135, 136, 137, 138, 139, 140, 141, 142, 143, 144, 145, 146, 147, 148, 149, 150, 151, 152, 153, 154, 155, 156, 157, 158, 159, 160, 161, 162, 163, 164, 165, 166, 167, 168, 169, 170, 171, 172, 173, 174, 175, 176, 177, 178, 179, 180, 181, 182, 183, 184, 185, 186, 187, 188, 189, 190, 191, 192, 193, 194, 195, 196, 197, 198, 199, 200, 201, 202],
      "LargestImagePixelValue": [46814, 46219, 44581, 44174, 44150, 45003, 45301, 45346, 44854, 46102, 44220, 45298, 44514, 43722, 44891, 45397, 44123, 43913, 44121, 44034, 43634, 43646, 43565, 44037, 43987, 45138, 46050, 43946, 42612, 44146, 44283, 44007, 44616, 45565, 45211, 43192, 44423, 44136, 46113, 44341, 44023, 44471, 44871, 44233, 41769, 42843, 44633, 43799, 41902, 42288, 42553, 42534, 41776, 42466, 43338, 45188, 46545, 44972, 44473, 43839, 44163, 43683, 43708, 43965, 42778, 42581, 42379, 43020, 42605, 43337, 43360, 43241, 43187, 43453, 47822, 42462, 42841, 43252, 43172, 42887, 44009, 43051, 43142, 45093, 42842, 43229, 43188, 43093, 43277, 42913, 46274, 45159, 45760, 41908, 42032, 43393, 44485, 44741, 44063, 44403, 43436, 45181, 45481, 44137, 42285, 43433, 43783, 42030, 42756, 42680, 44081, 44140, 45341, 44667, 45165, 43856, 44585, 44364, 44575, 44112, 44573, 44096, 41901, 42738, 42656, 42724, 42861, 42821, 43982, 42392, 43714, 43983, 43839, 48079, 43075, 42425, 42523, 42441, 43344, 42598, 42560, 42856, 43946, 44721, 44833, 44850, 44345, 43977, 44075, 41562, 43127, 42982, 44037, 43638, 43907, 44252, 45651, 43591, 42165, 43645, 43359, 42442, 47175, 43709, 42456, 42040, 43179, 41722, 42050, 42391, 42803, 42295, 42469, 42569, 42213, 42233, 42960, 42506, 42403, 43130, 42051, 42547, 42672, 44103, 43846, 44331, 44354, 43209, 41501, 42940, 42871, 44647, 43913, 45015, 42470, 43433, 43072, 44065, 43025, 42952, 44338, 44112],
      "WindowCenter": [10597.0, 10549.0, 10520.0, 10515.0, 10532.0, 10546.0, 10529.0, 10504.0, 10487.0, 10504.0, 10508.0, 10545.0, 10520.0, 10490.0, 10497.0, 10500.0, 10508.0, 10511.0, 10506.0, 10508.0, 10485.0, 10491.0, 10491.0, 10499.0, 10511.0, 10518.0, 10523.0, 10507.0, 10509.0, 10525.0, 10525.0, 10508.0, 10522.0, 10518.0, 10519.0, 10505.0, 10540.0, 10537.0, 10543.0, 10524.0, 10533.0, 10559.0, 10555.0, 10520.0, 10479.0, 10488.0, 10494.0, 10488.0, 10499.0, 10535.0, 10527.0, 10506.0, 10487.0, 10484.0, 10473.0, 10485.0, 10509.0, 10516.0, 10521.0, 10526.0, 10560.0, 10566.0, 10532.0, 10519.0, 10498.0, 10499.0, 10509.0, 10522.0, 10493.0, 10495.0, 10503.0, 10490.0, 10494.0, 10487.0, 10530.0, 10491.0, 10503.0, 10521.0, 10526.0, 10506.0, 10505.0, 10488.0, 10496.0, 10512.0, 10488.0, 10494.0, 10509.0, 10513.0, 10511.0, 10487.0, 10484.0, 10522.0, 10555.0, 10538.0, 10535.0, 10534.0, 10524.0, 10510.0, 10519.0, 10545.0, 10553.0, 10558.0, 10561.0, 10542.0, 10519.0, 10522.0, 10515.0, 10491.0, 10521.0, 10542.0, 10550.0, 10538.0, 10549.0, 10543.0, 10556.0, 10558.0, 10572.0, 10550.0, 10536.0, 10511.0, 10514.0, 10502.0, 10477.0, 10491.0, 10508.0, 10538.0, 10557.0, 10556.0, 10538.0, 10506.0, 10502.0, 10500.0, 10501.0, 10539.0, 10504.0, 10506.0, 10524.0, 10548.0, 10559.0, 10546.0, 10511.0, 10488.0, 10490.0, 10492.0, 10505.0, 10510.0, 10507.0, 10512.0, 10512.0, 10474.0, 10515.0, 10513.0, 10532.0, 10511.0, 10517.0, 10531.0, 10548.0, 10536.0, 10522.0, 10523.0, 10515.0, 10509.0, 10563.0, 10540.0, 10539.0, 10531.0, 10547.0, 10543.0, 10554.0, 10560.0, 10588.0, 10571.0, 10532.0, 10529.0, 10534.0, 10523.0, 10524.0, 10522.0, 10506.0, 10482.0, 10459.0, 10479.0, 10478.0, 10489.0, 10495.0, 10497.0, 10493.0, 10469.0, 10459.0, 10470.0, 10461.0, 10477.0, 10481.0, 10518.0, 10517.0, 10547.0, 10567.0, 10562.0, 10513.0, 10492.0, 10490.0, 10481.0],
      "WindowWidth": [22541.0, 22418.0, 22338.0, 22327.0, 22372.0, 22393.0, 22351.0, 22287.0, 22246.0, 22289.0, 22304.0, 22384.0, 22327.0, 22259.0, 22281.0, 22277.0, 22303.0, 22320.0, 22295.0, 22302.0, 22247.0, 22262.0, 22263.0, 22279.0, 22315.0, 22318.0, 22327.0, 22297.0, 22313.0, 22341.0, 22348.0, 22313.0, 22340.0, 22319.0, 22324.0, 22299.0, 22380.0, 22374.0, 22386.0, 22337.0, 22364.0, 22432.0, 22418.0, 22339.0, 22250.0, 22262.0, 22268.0, 22252.0, 22286.0, 22373.0, 22352.0, 22306.0, 22275.0, 22259.0, 22231.0, 22246.0, 22297.0, 22311.0, 22327.0, 22340.0, 22422.0, 22440.0, 22360.0, 22328.0, 22280.0, 22287.0, 22310.0, 22354.0, 22267.0, 22271.0, 22294.0, 22267.0, 22274.0, 22257.0, 22341.0, 22267.0, 22291.0, 22333.0, 22345.0, 22301.0, 22295.0, 22252.0, 22277.0, 22309.0, 22257.0, 22270.0, 22304.0, 22315.0, 22309.0, 22253.0, 22246.0, 22331.0, 22409.0, 22384.0, 22384.0, 22372.0, 22339.0, 22302.0, 22325.0, 22389.0, 22413.0, 22426.0, 22424.0, 22382.0, 22340.0, 22340.0, 22316.0, 22267.0, 22342.0, 22392.0, 22398.0, 22370.0, 22393.0, 22382.0, 22408.0, 22418.0, 22450.0, 22398.0, 22376.0, 22316.0, 22318.0, 22289.0, 22236.0, 22262.0, 22301.0, 22377.0, 22419.0, 22423.0, 22371.0, 22311.0, 22293.0, 22287.0, 22291.0, 22364.0, 22292.0, 22296.0, 22341.0, 22398.0, 22424.0, 22395.0, 22311.0, 22253.0, 22255.0, 22255.0, 22287.0, 22308.0, 22299.0, 22305.0, 22305.0, 22233.0, 22314.0, 22315.0, 22357.0, 22310.0, 22322.0, 22355.0, 22385.0, 22368.0, 22345.0, 22338.0, 22316.0, 22304.0, 22421.0, 22378.0, 22378.0, 22366.0, 22394.0, 22389.0, 22419.0, 22433.0, 22494.0, 22459.0, 22361.0, 22352.0, 22372.0, 22340.0, 22346.0, 22337.0, 22302.0, 22232.0, 22188.0, 22239.0, 22229.0, 22248.0, 22271.0, 22269.0, 22255.0, 22208.0, 22194.0, 22209.0, 22185.0, 22215.0, 22227.0, 22313.0, 22318.0, 22385.0, 22435.0, 22419.0, 22309.0, 22261.0, 22251.0, 22229.0]
    },
    "slices": {}
  }
}