{
  "AcquisitionMatrixPE": 104,
  "AcquisitionNumber": 1,
  "AcquisitionTime": "18:18:18.427500",
  "BandwidthPerPixelPhaseEncode": 17.17,
  "BaseResolution": 104,
  "BodyPartExamined": "BRAIN",
  "CoilString": "HC1-7;NC1_2",
  "ConsistencyInfo": "N4_VE11C_LATEST_20160120",
  "ConversionSoftware": "dcm2niix",
  "ConversionSoftwareVersion": "v1.0.20190902",
  "DerivedVendorReportedEchoSpacing": 0.000560011,
  "DeviceSerialNumber": "167006",
  "DwellTime": 2.1e-06,
  "EchoTime": 0.037,
  "EchoTrainLength": 104,
  "EffectiveEchoSpacing": 0.000560011,
  "FlipAngle": 52,
  "ImageComments": "Unaliased_MB4_PE3_LB",
  "ImageOrientationPatientDICOM": [0.995421, 0.0950235, 0.0103982, -0.0832378, 0.915127, -0.394481],
  "ImageType": [
    "ORIGINAL",
    "PRIMARY",
    "M",
    "MB",
    "ND",
    "MOSAIC"
],
  "ImagingFrequency": 123.259,
  "InPlanePhaseEncodingDirectionDICOM": "COL",
  "InstitutionAddress": "Chemin_Queen-Mary_4565_Montreal_District_CA_H3W_1W5",
  "InstitutionName": "IUGM",
  "InstitutionalDepartmentName": "Department",
  "MRAcquisitionType": "2D",
  "MagneticFieldStrength": 3,
  "Manufacturer": "Siemens",
  "ManufacturersModelName": "Prisma_fit",
  "Modality": "MR",
  "MultibandAccelerationFactor": 4,
  "PartialFourier": 1,
  "PatientPosition": "HFS",
  "PercentPhaseFOV": 100,
  "PhaseEncodingDirection": "j",
  "PhaseEncodingSteps": 104,
  "PhaseResolution": 1,
  "PixelBandwidth": 2290,
  "ProcedureStepDescription": "localizers_retinotopy",
  "ProtocolName": "func_task-wedges",
  "PulseSequenceDetails": "%CustomerSeq%_cmrr_mbep2d_bold",
  "ReceiveCoilActiveElements": "HC1-7;NC1,2",
  "ReceiveCoilName": "HeadNeck_64",
  "ReconMatrixPE": 104,
  "RepetitionTime": 1.49,
  "SAR": 0.0407345,
  "ScanOptions": "FS",
  "ScanningSequence": "EP",
  "SequenceName": "epfid2d1_104",
  "SequenceVariant": "SK_SS",
  "SeriesDescription": "func_task-wedges",
  "SeriesNumber": 10,
  "ShimSetting": [623, -7194, -8827, 610, 67, -12, -50, -15],
  "SliceThickness": 2,
  "SliceTiming": [0, 0.785, 0.1, 0.8825, 0.1975, 0.98, 0.295, 1.08, 0.3925, 1.1775, 0.49, 1.275, 0.59, 1.3725, 0.6875, 0, 0.785, 0.1, 0.8825, 0.1975, 0.98, 0.295, 1.08, 0.3925, 1.1775, 0.49, 1.275, 0.59, 1.3725, 0.6875, 0, 0.785, 0.1, 0.8825, 0.1975, 0.98, 0.295, 1.08, 0.3925, 1.1775, 0.49, 1.275, 0.59, 1.3725, 0.6875, 0, 0.785, 0.1, 0.8825, 0.1975, 0.98, 0.295, 1.08, 0.3925, 1.1775, 0.49, 1.275, 0.59, 1.3725, 0.6875],
  "SoftwareVersions": "syngo_MR_E11",
  "SpacingBetweenSlices": 2,
  "StationName": "MRC35049",
  "TaskName": "wedges",
  "TotalReadoutTime": 0.0576811,
  "TxRefAmp": 252.936,
  "WipMemBlock": "be0a189e-dd87-4988-ae00-208193bda987||Sequence: R016 ve11c/master r/e634e98; Dec 19 2017 11:00:25 by eja",
  "dcmmeta_affine": [
    [-1.9908413887023926, -0.16647565364837646, 0.0940011590719223, 111.94192504882812],
    [-0.190047025680542, 1.830253005027771, -0.7836172580718994, -46.84538269042969],
    [0.02079635299742222, 0.7889612317085266, 1.837690830230713, -63.96932601928711],
    [0.0, 0.0, 0.0, 1.0]
],
  "dcmmeta_reorient_transform": [
    [0.0, -1.0, 0.0, 103.0],
    [1.0, 0.0, 0.0, 0.0],
    [0.0, 0.0, 1.0, 0.0],
    [0.0, 0.0, 0.0, 1.0]
],
  "dcmmeta_shape": [104, 104, 60, 202],
  "dcmmeta_slice_dim": 2,
  "dcmmeta_version": 0.6,
  "global": {
    "const": {
      "AcquisitionMatrix": [104, 0, 0, 104],
      "AngioFlag": "N",
      "BitsAllocated": 16,
      "BitsStored": 16,
      "BodyPartExamined": "BRAIN",
      "Columns": 832,
      "EchoNumbers": 1,
      "EchoTime": 37.0,
      "EchoTrainLength": 104,
      "FlipAngle": 52.0,
      "HighBit": 15,
      "ImageOrientationPatient": [0.99542071999218, 0.09502351361747, 0.01039817628458, -0.0832378262699, 0.91512650391556, -0.3944806029568],
      "ImagePositionPatient": [-758.86407741313, -877.0598887452, 296.90568482623],
      "ImageType": [
        "ORIGINAL",
        "PRIMARY",
        "M",
        "MB",
        "ND",
        "MOSAIC"
],
      "ImagedNucleus": "1H",
      "ImagingFrequency": 123.258926,
      "InPlanePhaseEncodingDirection": "COL",
      "MRAcquisitionType": "2D",
      "MagneticFieldStrength": 3.0,
      "Manufacturer": "SIEMENS",
      "ManufacturerModelName": "Prisma_fit",
      "Modality": "MR",
      "NumberOfAverages": 1.0,
      "NumberOfPhaseEncodingSteps": 104,
      "PercentPhaseFieldOfView": 100.0,
      "PercentSampling": 100.0,
      "PerformedProcedureStepStartTime": "181314.693000",
      "PhotometricInterpretation": "MONOCHROME2",
      "PixelBandwidth": 2290.0,
      "PixelRepresentation": 0,
      "PixelSpacing": [2.0, 2.0],
      "ProtocolName": "func_task-wedges",
      "RepetitionTime": 1490.0,
      "Rows": 832,
      "SAR": 0.04073445165891,
      "SamplesPerPixel": 1,
      "ScanOptions": "FS",
      "ScanningSequence": "EP",
      "SequenceName": "epfid2d1_104",
      "SequenceVariant": [
        "SK",
        "SS"
],
      "SeriesDescription": "func_task-wedges",
      "SeriesNumber": 10,
      "SeriesTime": "181927.140000",
      "SliceLocation": -35.162161525995,
      "SliceThickness": 2.0,
      "SmallestImagePixelValue": 0,
      "SoftwareVersions": "syngo MR E11",
      "SpacingBetweenSlices": 1.9999999687222,
      "SpecificCharacterSet": "ISO_IR 100",
      "StudyID": "1",
      "StudyTime": "181314.604000",
      "TransmitCoilName": "Body",
      "VariableFlipAngleFlag": "N",
      "WindowCenterWidthExplanation": "Algo1",
      "dBdt": 0.0},
    "slices": {}
  },
  "time": {
    "samples": {
      "AcquisitionNumber": [1, 2, 3, 4, 5, 6, 7, 8, 9, 10, 11, 12, 13, 14, 15, 16, 17, 18, 19, 20, 21, 22, 23, 24, 25, 26, 27, 28, 29, 30, 31, 32, 33, 34, 35, 36, 37, 38, 39, 40, 41, 42, 43, 44, 45, 46, 47, 48, 49, 50, 51, 52, 53, 54, 55, 56, 57, 58, 59, 60, 61, 62, 63, 64, 65, 66, 67, 68, 69, 70, 71, 72, 73, 74, 75, 76, 77, 78, 79, 80, 81, 82, 83, 84, 85, 86, 87, 88, 89, 90, 91, 92, 93, 94, 95, 96, 97, 98, 99, 100, 101, 102, 103, 104, 105, 106, 107, 108, 109, 110, 111, 112, 113, 114, 115, 116, 117, 118, 119, 120, 121, 122, 123, 124, 125, 126, 127, 128, 129, 130, 131, 132, 133, 134, 135, 136, 137, 138, 139, 140, 141, 142, 143, 144, 145, 146, 147, 148, 149, 150, 151, 152, 153, 154, 155, 156, 157, 158, 159, 160, 161, 162, 163, 164, 165, 166, 167, 168, 169, 170, 171, 172, 173, 174, 175, 176, 177, 178, 179, 180, 181, 182, 183, 184, 185, 186, 187, 188, 189, 190, 191, 192, 193, 194, 195, 196, 197, 198, 199, 200, 201, 202],
      "AcquisitionTime": ["181818.427500", "181819.917500", "181821.407500", "181822.897500", "181824.387500", "181825.877500", "181827.367500", "181828.857500", "181830.347500", "181831.837500", "181833.327500", "181834.817500", "181836.307500", "181837.797500", "181839.287500", "181840.777500", "181842.267500", "181843.757500", "181845.247500", "181846.737500", "181848.227500", "181849.717500", "181851.207500", "181852.697500", "181854.187500", "181855.677500", "181857.167500", "181858.657500", "181900.147500", "181901.637500", "181903.127500", "181904.617500", "181906.107500", "181907.597500", "181909.087500", "181910.577500", "181912.067500", "181913.557500", "181915.047500", "181916.537500", "181918.027500", "181919.517500", "181921.007500", "181922.497500", "181923.987500", "181925.477500", "181926.967500", "181928.457500", "181929.947500", "181931.437500", "181932.927500", "181934.417500", "181935.907500", "181937.397500", "181938.887500", "181940.377500", "181941.867500", "181943.357500", "181944.847500", "181946.337500", "181947.827500", "181949.317500", "181950.807500", "181952.297500", "181953.787500", "181955.277500", "181956.767500", "181958.257500", "181959.747500", "182001.237500", "182002.727500", "182004.217500", "182005.707500", "182007.197500", "182008.687500", "182010.177500", "182011.667500", "182013.157500", "182014.647500", "182016.137500", "182017.627500", "182019.117500", "182020.607500", "182022.097500", "182023.587500", "182025.077500", "182026.567500", "182028.057500", "182029.547500", "182031.037500", "182032.527500", "182034.017500", "182035.507500", "182036.997500", "182038.487500", "182039.977500", "182041.467500", "182042.957500", "182044.447500", "182045.937500", "182047.427500", "182048.917500", "182050.407500", "182051.897500", "182053.387500", "182054.877500", "182056.367500", "182057.857500", "182059.347500", "182100.837500", "182102.327500", "182103.817500", "182105.307500", "182106.797500", "182108.287500", "182109.777500", "182111.267500", "182112.757500", "182114.247500", "182115.737500", "182117.227500", "182118.717500", "182120.207500", "182121.697500", "182123.187500", "182124.677500", "182126.167500", "182127.657500", "182129.147500", "182130.637500", "182132.127500", "182133.617500", "182135.107500", "182136.597500", "182138.087500", "182139.577500", "182141.067500", "182142.557500", "182144.047500", "182145.537500", "182147.027500", "182148.517500", "182150.007500", "182151.497500", "182152.987500", "182154.477500", "182155.967500", "182157.457500", "182158.947500", "182200.437500", "182201.927500", "182203.417500", "182204.907500", "182206.397500", "182207.887500", "182209.377500", "182210.867500", "182212.357500", "182213.847500", "182215.337500", "182216.827500", "182218.317500", "182219.807500", "182221.297500", "182222.787500", "182224.277500", "182225.767500", "182227.257500", "182228.747500", "182230.237500", "182231.727500", "182233.217500", "182234.707500", "182236.197500", "182237.687500", "182239.177500", "182240.667500", "182242.157500", "182243.647500", "182245.137500", "182246.627500", "182248.117500", "182249.607500", "182251.097500", "182252.587500", "182254.077500", "182255.567500", "182257.057500", "182258.547500", "182300.037500", "182301.527500", "182303.017500", "182304.507500", "182305.997500", "182307.487500", "182308.977500", "182310.467500", "182311.957500", "182313.447500", "182314.937500", "182316.427500", "182317.917500"],
      "ContentTime": ["181927.143000", "181927.147000", "181927.150000", "181927.154000", "181927.157000", "181927.160000", "181927.164000", "181927.167000", "181927.170000", "181927.173000", "181927.177000", "181927.180000", "181927.183000", "181927.187000", "181947.103000", "181947.107000", "181947.110000", "181947.118000", "181947.121000", "181947.124000", "181947.128000", "181947.131000", "181947.134000", "181947.137000", "181947.141000", "181947.144000", "181947.147000", "181947.151000", "181947.154000", "181947.157000", "181947.161000", "181947.164000", "181947.167000", "181947.170000", "182007.103000", "182007.107000", "182007.110000", "182007.114000", "182007.117000", "182007.121000", "182007.124000", "182007.127000", "182007.131000", "182007.134000", "182007.138000", "182007.141000", "182007.144000", "182007.148000", "182007.151000", "182007.154000", "182007.158000", "182007.161000", "182007.165000", "182007.168000", "182007.172000", "182027.104000", "182027.108000", "182027.111000", "182027.114000", "182027.118000", "182027.121000", "182027.124000", "182027.128000", "182027.131000", "182027.134000", "182027.137000", "182027.141000", "182027.144000", "182027.147000", "182027.150000", "182027.154000", "182027.157000", "182027.161000", "182027.164000", "182027.167000", "182047.104000", "182047.108000", "182047.111000", "182047.114000", "182047.118000", "182047.121000", "182047.124000", "182047.127000", "182047.131000", "182047.134000", "182047.137000", "182047.141000", "182047.144000", "182047.147000", "182047.150000", "182047.154000", "182047.157000", "182047.161000", "182047.164000", "182047.168000", "182127.105000", "182127.108000", "182127.112000", "182127.115000", "182127.118000", "182127.122000", "182127.125000", "182127.128000", "182127.131000", "182127.135000", "182127.138000", "182127.141000", "182127.145000", "182127.148000", "182127.151000", "182127.154000", "182127.158000", "182127.161000", "182127.189000", "182127.192000", "182127.195000", "182127.198000", "182127.202000", "182127.205000", "182127.208000", "182127.212000", "182127.215000", "182127.219000", "182127.222000", "182127.226000", "182127.229000", "182207.103000", "182207.107000", "182207.110000", "182207.113000", "182207.117000", "182207.120000", "182207.123000", "182207.126000", "182207.130000", "182207.133000", "182207.136000", "182207.140000", "182207.143000", "182207.146000", "182207.149000", "182207.153000", "182207.157000", "182207.160000", "182207.164000", "182207.167000", "182207.170000", "182207.174000", "182207.177000", "182207.181000", "182207.184000", "182207.187000", "182207.190000", "182247.104000", "182247.108000", "182247.111000", "182247.115000", "182247.118000", "182247.121000", "182247.125000", "182247.128000", "182247.131000", "182247.147000", "182247.151000", "182247.154000", "182247.157000", "182247.160000", "182247.164000", "182247.167000", "182247.170000", "182247.174000", "182247.186000", "182247.190000", "182247.193000", "182247.196000", "182247.200000", "182247.203000", "182247.206000", "182247.210000", "182247.213000", "182319.842000", "182319.846000", "182319.849000", "182319.852000", "182319.856000", "182319.859000", "182319.862000", "182319.866000", "182319.869000", "182319.872000", "182319.876000", "182319.879000", "182319.882000", "182319.885000", "182319.889000", "182319.892000", "182319.895000", "182319.899000", "182319.902000", "182319.905000", "182319.909000", "182319.912000"],
      "InstanceCreationTime": ["181927.143000", "181927.147000", "181927.150000", "181927.154000", "181927.157000", "181927.160000", "181927.164000", "181927.167000", "181927.170000", "181927.173000", "181927.177000", "181927.180000", "181927.183000", "181927.187000", "181947.103000", "181947.107000", "181947.110000", "181947.118000", "181947.121000", "181947.124000", "181947.128000", "181947.131000", "181947.134000", "181947.137000", "181947.141000", "181947.144000", "181947.147000", "181947.151000", "181947.154000", "181947.157000", "181947.161000", "181947.164000", "181947.167000", "181947.170000", "182007.103000", "182007.107000", "182007.110000", "182007.114000", "182007.117000", "182007.121000", "182007.124000", "182007.127000", "182007.131000", "182007.134000", "182007.138000", "182007.141000", "182007.144000", "182007.148000", "182007.151000", "182007.154000", "182007.158000", "182007.161000", "182007.165000", "182007.168000", "182007.172000", "182027.104000", "182027.108000", "182027.111000", "182027.114000", "182027.118000", "182027.121000", "182027.124000", "182027.128000", "182027.131000", "182027.134000", "182027.137000", "182027.141000", "182027.144000", "182027.147000", "182027.150000", "182027.154000", "182027.157000", "182027.161000", "182027.164000", "182027.167000", "182047.104000", "182047.108000", "182047.111000", "182047.114000", "182047.118000", "182047.121000", "182047.124000", "182047.127000", "182047.131000", "182047.134000", "182047.137000", "182047.141000", "182047.144000", "182047.147000", "182047.150000", "182047.154000", "182047.157000", "182047.161000", "182047.164000", "182047.168000", "182127.105000", "182127.108000", "182127.112000", "182127.115000", "182127.118000", "182127.122000", "182127.125000", "182127.128000", "182127.131000", "182127.135000", "182127.138000", "182127.141000", "182127.145000", "182127.148000", "182127.151000", "182127.154000", "182127.158000", "182127.161000", "182127.189000", "182127.192000", "182127.195000", "182127.198000", "182127.202000", "182127.205000", "182127.208000", "182127.212000", "182127.215000", "182127.219000", "182127.222000", "182127.226000", "182127.229000", "182207.103000", "182207.107000", "182207.110000", "182207.113000", "182207.117000", "182207.120000", "182207.123000", "182207.126000", "182207.130000", "182207.133000", "182207.136000", "182207.140000", "182207.143000", "182207.146000", "182207.149000", "182207.153000", "182207.157000", "182207.160000", "182207.164000", "182207.167000", "182207.170000", "182207.174000", "182207.177000", "182207.181000", "182207.184000", "182207.187000", "182207.190000", "182247.104000", "182247.108000", "182247.111000", "182247.115000", "182247.118000", "182247.121000", "182247.125000", "182247.128000", "182247.131000", "182247.147000", "182247.151000", "182247.154000", "182247.157000", "182247.160000", "182247.164000", "182247.167000", "182247.170000", "182247.174000", "182247.186000", "182247.190000", "182247.193000", "182247.196000", "182247.200000", "182247.203000", "182247.206000", "182247.210000", "182247.213000", "182319.842000", "182319.846000", "182319.849000", "182319.852000", "182319.856000", "182319.859000", "182319.862000", "182319.866000", "182319.869000", "182319.872000", "182319.876000", "182319.879000", "182319.882000", "182319.885000", "182319.889000", "182319.892000", "182319.895000", "182319.899000", "182319.902000", "182319.905000", "182319.909000", "182319.912000"],
      "InstanceNumber": [1, 2, 3, 4, 5, 6, 7, 8, 9, 10, 11, 12, 13, 14, 15, 16, 17, 18, 19, 20, 21, 22, 23, 24, 25, 26, 27, 28, 29, 30, 31, 32, 33, 34, 35, 36, 37, 38, 39, 40, 41, 42, 43, 44, 45, 46, 47, 48, 49, 50, 51, 52, 53, 54, 55, 56, 57, 58, 59, 60, 61, 62, 63, 64, 65, 66, 67, 68, 69, 70, 71, 72, 73, 74, 75, 76, 77, 78, 79, 80, 81, 82, 83, 84, 85, 86, 87, 88, 89, 90, 91, 92, 93, 94, 95, 96, 97, 98, 99, 100, 101, 102, 103, 104, 105, 106, 107, 108, 109, 110, 111, 112, 113, 114, 115, 116, 117, 118, 119, 120, 121, 122, 123, 124, 125, 126, 127, 128, 129, 130, 131, 132, 133, 134, 135, 136, 137, 138, 139, 140, 141, 142, 143, 144, 145, 146, 147, 148, 149, 150, 151, 152, 153, 154, 155, 156, 157, 158, 159, 160, 161, 162, 163, 164, 165, 166, 167, 168, 169, 170, 171, 172, 173, 174, 175, 176, 177, 178, 179, 180, 181, 182, 183, 184, 185, 186, 187, 188, 189, 190, 191, 192, 193, 194, 195, 196, 197, 198, 199, 200, 201, 202],
      "LargestImagePixelValue": [45468, 43952, 44465, 45820, 46881, 44994, 44723, 46876, 45834, 45599, 44573, 45397, 45211, 44820, 43901, 43022, 43226, 43353, 44126, 42647, 41968, 42789, 42130, 41732, 43398, 43207, 41569, 42409, 45551, 46941, 45263, 45284, 46107, 45280, 44540, 42526, 41981, 40794, 41125, 41905, 41827, 41326, 42133, 44793, 46445, 46451, 46647, 43501, 43576, 42321, 42472, 39774, 39548, 41506, 41419, 42525, 42792, 41979, 41602, 41140, 41155, 40451, 41524, 42074, 42406, 42388, 43523, 41903, 42290, 42756, 43036, 44266, 43766, 42066, 43795, 43764, 43146, 41990, 40896, 42618, 45219, 42714, 46089, 43428, 42779, 41822, 40807, 39823, 39986, 39993, 41642, 46800, 41314, 41704, 41356, 42498, 41433, 42635, 41205, 41366, 41213, 41544, 42165, 42873, 42723, 42206, 42850, 39847, 39545, 41952, 41943, 41082, 41859, 39800, 40711, 40930, 40264, 41159, 41402, 43312, 44668, 44082, 43114, 42054, 39781, 40678, 42974, 45127, 44899, 44456, 41542, 40380, 39513, 40115, 40395, 40229, 41041, 43300, 42908, 41635, 42475, 42348, 43029, 43102, 42393, 41907, 42963, 43090, 43639, 44446, 44145, 43881, 43251, 43448, 42975, 43003, 43560, 44082, 40837, 41863, 40731, 39964, 39999, 39989, 40435, 40935, 43474, 43802, 43597, 43826, 44349, 42807, 42783, 43429, 43456, 43703, 43140, 43385, 44318, 45083, 46614, 45848, 44843, 43786, 42450, 42157, 42928, 43238, 43765, 43423, 43428, 43600, 43640, 43254, 43272, 43325, 42344, 42339, 42470, 42704, 44885, 45536],
      "WindowCenter": [10611.0, 10555.0, 10552.0, 10567.0, 10585.0, 10576.0, 10556.0, 10545.0, 10533.0, 10524.0, 10504.0, 10508.0, 10515.0, 10539.0, 10547.0, 10537.0, 10527.0, 10514.0, 10526.0, 10536.0, 10536.0, 10537.0, 10511.0, 10488.0, 10529.0, 10541.0, 10516.0, 10504.0, 10535.0, 10549.0, 10534.0, 10539.0, 10541.0, 10516.0, 10493.0, 10474.0, 10470.0, 10460.0, 10468.0, 10490.0, 10493.0, 10482.0, 10482.0, 10513.0, 10550.0, 10561.0, 10569.0, 10538.0, 10523.0, 10504.0, 10493.0, 10454.0, 10447.0, 10479.0, 10487.0, 10514.0, 10514.0, 10494.0, 10493.0, 10487.0, 10489.0, 10477.0, 10496.0, 10512.0, 10526.0, 10518.0, 10520.0, 10502.0, 10508.0, 10523.0, 10529.0, 10528.0, 10519.0, 10523.0, 10546.0, 10550.0, 10533.0, 10513.0, 10504.0, 10520.0, 10557.0, 10556.0, 10590.0, 10544.0, 10509.0, 10495.0, 10475.0, 10446.0, 10446.0, 10446.0, 10477.0, 10538.0, 10487.0, 10482.0, 10474.0, 10493.0, 10491.0, 10523.0, 10504.0, 10504.0, 10486.0, 10485.0, 10500.0, 10509.0, 10507.0, 10495.0, 10498.0, 10459.0, 10465.0, 10493.0, 10506.0, 10491.0, 10491.0, 10468.0, 10475.0, 10466.0, 10442.0, 10454.0, 10461.0, 10487.0, 10502.0, 10490.0, 10478.0, 10470.0, 10453.0, 10483.0, 10508.0, 10537.0, 10531.0, 10526.0, 10482.0, 10450.0, 10442.0, 10447.0, 10446.0, 10454.0, 10467.0, 10501.0, 10505.0, 10477.0, 10487.0, 10479.0, 10484.0, 10492.0, 10498.0, 10495.0, 10495.0, 10502.0, 10525.0, 10555.0, 10534.0, 10518.0, 10495.0, 10490.0, 10495.0, 10515.0, 10524.0, 10538.0, 10516.0, 10493.0, 10476.0, 10459.0, 10442.0, 10447.0, 10456.0, 10479.0, 10522.0, 10526.0, 10518.0, 10507.0, 10511.0, 10488.0, 10487.0, 10506.0, 10518.0, 10524.0, 10509.0, 10506.0, 10519.0, 10541.0, 10557.0, 10538.0, 10516.0, 10497.0, 10474.0, 10459.0, 10472.0, 10496.0, 10494.0, 10476.0, 10466.0, 10455.0, 10469.0, 10482.0, 10492.0, 10484.0, 10474.0, 10474.0, 10469.0, 10463.0, 10487.0, 10519.0],
      "WindowWidth": [22570.0, 22430.0, 22408.0, 22434.0, 22472.0, 22459.0, 22410.0, 22374.0, 22347.0, 22326.0, 22284.0, 22290.0, 22310.0, 22368.0, 22392.0, 22371.0, 22351.0, 22316.0, 22340.0, 22373.0, 22378.0, 22374.0, 22311.0, 22260.0, 22347.0, 22382.0, 22331.0, 22297.0, 22354.0, 22384.0, 22355.0, 22363.0, 22370.0, 22309.0, 22258.0, 22222.0, 22220.0, 22204.0, 22222.0, 22268.0, 22276.0, 22256.0, 22246.0, 22309.0, 22391.0, 22426.0, 22440.0, 22376.0, 22340.0, 22295.0, 22267.0, 22188.0, 22176.0, 22253.0, 22266.0, 22323.0, 22322.0, 22281.0, 22277.0, 22266.0, 22270.0, 22246.0, 22287.0, 22323.0, 22353.0, 22334.0, 22336.0, 22298.0, 22309.0, 22346.0, 22369.0, 22355.0, 22331.0, 22346.0, 22395.0, 22405.0, 22369.0, 22324.0, 22309.0, 22336.0, 22414.0, 22424.0, 22490.0, 22390.0, 22308.0, 22274.0, 22232.0, 22171.0, 22173.0, 22176.0, 22242.0, 22382.0, 22268.0, 22253.0, 22237.0, 22277.0, 22276.0, 22359.0, 22307.0, 22302.0, 22258.0, 22259.0, 22293.0, 22309.0, 22305.0, 22280.0, 22283.0, 22205.0, 22217.0, 22275.0, 22314.0, 22280.0, 22277.0, 22233.0, 22239.0, 22215.0, 22160.0, 22191.0, 22203.0, 22255.0, 22288.0, 22260.0, 22236.0, 22222.0, 22193.0, 22257.0, 22312.0, 22371.0, 22358.0, 22343.0, 22254.0, 22183.0, 22169.0, 22175.0, 22171.0, 22197.0, 22224.0, 22292.0, 22313.0, 22245.0, 22264.0, 22248.0, 22254.0, 22276.0, 22289.0, 22284.0, 22280.0, 22292.0, 22348.0, 22422.0, 22370.0, 22331.0, 22278.0, 22260.0, 22278.0, 22325.0, 22346.0, 22376.0, 22334.0, 22276.0, 22240.0, 22200.0, 22161.0, 22172.0, 22195.0, 22251.0, 22343.0, 22349.0, 22328.0, 22302.0, 22308.0, 22267.0, 22259.0, 22300.0, 22333.0, 22342.0, 22310.0, 22302.0, 22329.0, 22379.0, 22410.0, 22369.0, 22317.0, 22276.0, 22224.0, 22194.0, 22224.0, 22284.0, 22277.0, 22227.0, 22204.0, 22179.0, 22214.0, 22246.0, 22265.0, 22246.0, 22229.0, 22229.0, 22215.0, 22202.0, 22250.0, 22323.0]
    },
    "slices": {}
  }
}