{
  "AcquisitionMatrixPE": 104,
  "AcquisitionNumber": 1,
  "AcquisitionTime": "18:24:40.245000",
  "BandwidthPerPixelPhaseEncode": 17.17,
  "BaseResolution": 104,
  "BodyPartExamined": "BRAIN",
  "CoilString": "HC1-7;NC1_2",
  "ConsistencyInfo": "N4_VE11C_LATEST_20160120",
  "ConversionSoftware": "dcm2niix",
  "ConversionSoftwareVersion": "v1.0.20190902",
  "DerivedVendorReportedEchoSpacing": 0.000560011,
  "DeviceSerialNumber": "167006",
  "DwellTime": 2.1e-06,
  "EchoTime": 0.037,
  "EchoTrainLength": 104,
  "EffectiveEchoSpacing": 0.000560011,
  "FlipAngle": 52,
  "ImageComments": "Unaliased_MB4_PE3_LB",
  "ImageOrientationPatientDICOM": [0.995421, 0.0950235, 0.0103982, -0.0832378, 0.915127, -0.394481],
  "ImageType": [
    "ORIGINAL",
    "PRIMARY",
    "M",
    "MB",
    "ND",
    "MOSAIC"
],
  "ImagingFrequency": 123.259,
  "InPlanePhaseEncodingDirectionDICOM": "COL",
  "InstitutionAddress": "Chemin_Queen-Mary_4565_Montreal_District_CA_H3W_1W5",
  "InstitutionName": "IUGM",
  "InstitutionalDepartmentName": "Department",
  "MRAcquisitionType": "2D",
  "MagneticFieldStrength": 3,
  "Manufacturer": "Siemens",
  "ManufacturersModelName": "Prisma_fit",
  "Modality": "MR",
  "MultibandAccelerationFactor": 4,
  "PartialFourier": 1,
  "PatientPosition": "HFS",
  "PercentPhaseFOV": 100,
  "PhaseEncodingDirection": "j",
  "PhaseEncodingSteps": 104,
  "PhaseResolution": 1,
  "PixelBandwidth": 2290,
  "ProcedureStepDescription": "localizers_retinotopy",
  "ProtocolName": "func_task-rings",
  "PulseSequenceDetails": "%CustomerSeq%_cmrr_mbep2d_bold",
  "ReceiveCoilActiveElements": "HC1-7;NC1,2",
  "ReceiveCoilName": "HeadNeck_64",
  "ReconMatrixPE": 104,
  "RepetitionTime": 1.49,
  "SAR": 0.0407345,
  "ScanOptions": "FS",
  "ScanningSequence": "EP",
  "SequenceName": "epfid2d1_104",
  "SequenceVariant": "SK_SS",
  "SeriesDescription": "func_task-rings",
  "SeriesNumber": 13,
  "ShimSetting": [623, -7194, -8827, 610, 67, -12, -50, -15],
  "SliceThickness": 2,
  "SliceTiming": [0, 0.785, 0.0975, 0.8825, 0.195, 0.98, 0.295, 1.0775, 0.3925, 1.175, 0.49, 1.275, 0.5875, 1.3725, 0.685, 0, 0.785, 0.0975, 0.8825, 0.195, 0.98, 0.295, 1.0775, 0.3925, 1.175, 0.49, 1.275, 0.5875, 1.3725, 0.685, 0, 0.785, 0.0975, 0.8825, 0.195, 0.98, 0.295, 1.0775, 0.3925, 1.175, 0.49, 1.275, 0.5875, 1.3725, 0.685, 0, 0.785, 0.0975, 0.8825, 0.195, 0.98, 0.295, 1.0775, 0.3925, 1.175, 0.49, 1.275, 0.5875, 1.3725, 0.685],
  "SoftwareVersions": "syngo_MR_E11",
  "SpacingBetweenSlices": 2,
  "StationName": "MRC35049",
  "TaskName": "rings",
  "TotalReadoutTime": 0.0576811,
  "TxRefAmp": 252.936,
  "WipMemBlock": "25b4be1e-fcbb-47c4-a8b4-892acbaf6080||Sequence: R016 ve11c/master r/e634e98; Dec 19 2017 11:00:25 by eja",
  "dcmmeta_affine": [
    [-1.9908413887023926, -0.16647565364837646, 0.0940011590719223, 111.94192504882812],
    [-0.190047025680542, 1.830253005027771, -0.7836172580718994, -46.84538269042969],
    [0.02079635299742222, 0.7889612317085266, 1.837690830230713, -63.96932601928711],
    [0.0, 0.0, 0.0, 1.0]
],
  "dcmmeta_reorient_transform": [
    [0.0, -1.0, 0.0, 103.0],
    [1.0, 0.0, 0.0, 0.0],
    [0.0, 0.0, 1.0, 0.0],
    [0.0, 0.0, 0.0, 1.0]
],
  "dcmmeta_shape": [104, 104, 60, 202],
  "dcmmeta_slice_dim": 2,
  "dcmmeta_version": 0.6,
  "global": {
    "const": {
      "AcquisitionMatrix": [104, 0, 0, 104],
      "AngioFlag": "N",
      "BitsAllocated": 16,
      "BitsStored": 16,
      "BodyPartExamined": "BRAIN",
      "Columns": 832,
      "EchoNumbers": 1,
      "EchoTime": 37.0,
      "EchoTrainLength": 104,
      "FlipAngle": 52.0,
      "HighBit": 15,
      "ImageOrientationPatient": [0.99542071999218, 0.09502351361747, 0.01039817628458, -0.0832378262699, 0.91512650391556, -0.3944806029568],
      "ImagePositionPatient": [-758.86407741313, -877.0598887452, 296.90568482623],
      "ImageType": [
        "ORIGINAL",
        "PRIMARY",
        "M",
        "MB",
        "ND",
        "MOSAIC"
],
      "ImagedNucleus": "1H",
      "ImagingFrequency": 123.25893,
      "InPlanePhaseEncodingDirection": "COL",
      "MRAcquisitionType": "2D",
      "MagneticFieldStrength": 3.0,
      "Manufacturer": "SIEMENS",
      "ManufacturerModelName": "Prisma_fit",
      "Modality": "MR",
      "NumberOfAverages": 1.0,
      "NumberOfPhaseEncodingSteps": 104,
      "PercentPhaseFieldOfView": 100.0,
      "PercentSampling": 100.0,
      "PerformedProcedureStepStartTime": "181314.693000",
      "PhotometricInterpretation": "MONOCHROME2",
      "PixelBandwidth": 2290.0,
      "PixelRepresentation": 0,
      "PixelSpacing": [2.0, 2.0],
      "ProtocolName": "func_task-rings",
      "RepetitionTime": 1490.0,
      "Rows": 832,
      "SAR": 0.04073445165891,
      "SamplesPerPixel": 1,
      "ScanOptions": "FS",
      "ScanningSequence": "EP",
      "SequenceName": "epfid2d1_104",
      "SequenceVariant": [
        "SK",
        "SS"
],
      "SeriesDescription": "func_task-rings",
      "SeriesNumber": 13,
      "SeriesTime": "182559.871000",
      "SliceLocation": -35.162161525995,
      "SliceThickness": 2.0,
      "SmallestImagePixelValue": 0,
      "SoftwareVersions": "syngo MR E11",
      "SpacingBetweenSlices": 1.9999999687222,
      "SpecificCharacterSet": "ISO_IR 100",
      "StudyID": "1",
      "StudyTime": "181314.604000",
      "TransmitCoilName": "Body",
      "VariableFlipAngleFlag": "N",
      "WindowCenterWidthExplanation": "Algo1",
      "dBdt": 0.0},
    "slices": {}
  },
  "time": {
    "samples": {
      "AcquisitionNumber": [1, 2, 3, 4, 5, 6, 7, 8, 9, 10, 11, 12, 13, 14, 15, 16, 17, 18, 19, 20, 21, 22, 23, 24, 25, 26, 27, 28, 29, 30, 31, 32, 33, 34, 35, 36, 37, 38, 39, 40, 41, 42, 43, 44, 45, 46, 47, 48, 49, 50, 51, 52, 53, 54, 55, 56, 57, 58, 59, 60, 61, 62, 63, 64, 65, 66, 67, 68, 69, 70, 71, 72, 73, 74, 75, 76, 77, 78, 79, 80, 81, 82, 83, 84, 85, 86, 87, 88, 89, 90, 91, 92, 93, 94, 95, 96, 97, 98, 99, 100, 101, 102, 103, 104, 105, 106, 107, 108, 109, 110, 111, 112, 113, 114, 115, 116, 117, 118, 119, 120, 121, 122, 123, 124, 125, 126, 127, 128, 129, 130, 131, 132, 133, 134, 135, 136, 137, 138, 139, 140, 141, 142, 143, 144, 145, 146, 147, 148, 149, 150, 151, 152, 153, 154, 155, 156, 157, 158, 159, 160, 161, 162, 163, 164, 165, 166, 167, 168, 169, 170, 171, 172, 173, 174, 175, 176, 177, 178, 179, 180, 181, 182, 183, 184, 185, 186, 187, 188, 189, 190, 191, 192, 193, 194, 195, 196, 197, 198, 199, 200, 201, 202],
      "AcquisitionTime": ["182440.245000", "182441.735000", "182443.225000", "182444.715000", "182446.205000", "182447.695000", "182449.185000", "182450.675000", "182452.165000", "182453.655000", "182455.145000", "182456.635000", "182458.125000", "182459.615000", "182501.105000", "182502.595000", "182504.085000", "182505.575000", "182507.065000", "182508.555000", "182510.045000", "182511.535000", "182513.025000", "182514.515000", "182516.005000", "182517.495000", "182518.985000", "182520.475000", "182521.965000", "182523.455000", "182524.945000", "182526.435000", "182527.925000", "182529.415000", "182530.905000", "182532.395000", "182533.885000", "182535.375000", "182536.865000", "182538.355000", "182539.845000", "182541.335000", "182542.825000", "182544.315000", "182545.805000", "182547.295000", "182548.785000", "182550.275000", "182551.765000", "182553.255000", "182554.745000", "182556.235000", "182557.725000", "182559.215000", "182600.705000", "182602.195000", "182603.685000", "182605.175000", "182606.665000", "182608.155000", "182609.645000", "182611.135000", "182612.625000", "182614.115000", "182615.605000", "182617.095000", "182618.585000", "182620.075000", "182621.565000", "182623.055000", "182624.545000", "182626.035000", "182627.525000", "182629.015000", "182630.505000", "182631.995000", "182633.485000", "182634.975000", "182636.465000", "182637.955000", "182639.445000", "182640.935000", "182642.425000", "182643.915000", "182645.405000", "182646.895000", "182648.385000", "182649.875000", "182651.365000", "182652.855000", "182654.345000", "182655.835000", "182657.325000", "182658.815000", "182700.305000", "182701.795000", "182703.285000", "182704.775000", "182706.265000", "182707.755000", "182709.245000", "182710.735000", "182712.225000", "182713.715000", "182715.205000", "182716.695000", "182718.185000", "182719.675000", "182721.165000", "182722.655000", "182724.145000", "182725.635000", "182727.125000", "182728.615000", "182730.105000", "182731.595000", "182733.085000", "182734.575000", "182736.065000", "182737.555000", "182739.045000", "182740.535000", "182742.025000", "182743.515000", "182745.005000", "182746.495000", "182747.985000", "182749.475000", "182750.965000", "182752.455000", "182753.945000", "182755.435000", "182756.925000", "182758.415000", "182759.905000", "182801.395000", "182802.885000", "182804.375000", "182805.865000", "182807.355000", "182808.845000", "182810.335000", "182811.825000", "182813.315000", "182814.805000", "182816.295000", "182817.785000", "182819.275000", "182820.765000", "182822.255000", "182823.745000", "182825.235000", "182826.725000", "182828.215000", "182829.705000", "182831.195000", "182832.685000", "182834.175000", "182835.665000", "182837.155000", "182838.645000", "182840.135000", "182841.625000", "182843.115000", "182844.605000", "182846.095000", "182847.585000", "182849.075000", "182850.565000", "182852.055000", "182853.545000", "182855.035000", "182856.525000", "182858.015000", "182859.505000", "182900.995000", "182902.485000", "182903.975000", "182905.465000", "182906.955000", "182908.445000", "182909.935000", "182911.425000", "182912.915000", "182914.405000", "182915.895000", "182917.385000", "182918.875000", "182920.365000", "182921.855000", "182923.345000", "182924.835000", "182926.325000", "182927.815000", "182929.305000", "182930.795000", "182932.285000", "182933.775000", "182935.265000", "182936.755000", "182938.245000", "182939.735000"],
      "ContentTime": ["182559.874000", "182559.878000", "182559.882000", "182559.885000", "182559.888000", "182559.892000", "182559.895000", "182559.898000", "182559.902000", "182559.905000", "182559.908000", "182559.911000", "182559.914000", "182559.918000", "182559.921000", "182559.924000", "182559.928000", "182559.931000", "182559.934000", "182559.937000", "182559.940000", "182559.944000", "182559.947000", "182559.950000", "182559.954000", "182559.957000", "182619.844000", "182619.849000", "182619.852000", "182619.855000", "182619.858000", "182619.862000", "182619.865000", "182619.876000", "182619.880000", "182619.883000", "182619.886000", "182619.889000", "182619.892000", "182619.896000", "182619.900000", "182619.903000", "182619.907000", "182619.910000", "182619.913000", "182619.916000", "182639.842000", "182639.846000", "182639.849000", "182639.852000", "182639.855000", "182639.858000", "182639.862000", "182639.865000", "182639.869000", "182639.872000", "182639.875000", "182639.878000", "182639.882000", "182639.885000", "182639.888000", "182639.892000", "182639.895000", "182639.898000", "182639.901000", "182639.904000", "182639.908000", "182659.842000", "182659.845000", "182659.849000", "182659.852000", "182659.855000", "182659.858000", "182659.862000", "182659.865000", "182659.868000", "182659.871000", "182659.875000", "182659.878000", "182659.881000", "182659.885000", "182659.888000", "182659.891000", "182659.895000", "182659.898000", "182659.901000", "182659.904000", "182739.842000", "182739.848000", "182739.851000", "182739.871000", "182739.874000", "182739.877000", "182739.881000", "182739.884000", "182739.887000", "182739.890000", "182739.894000", "182739.897000", "182739.900000", "182739.904000", "182739.907000", "182739.910000", "182739.914000", "182739.917000", "182739.920000", "182739.923000", "182739.927000", "182739.930000", "182739.933000", "182739.936000", "182739.940000", "182739.943000", "182739.946000", "182739.950000", "182739.953000", "182739.956000", "182739.960000", "182739.963000", "182739.967000", "182759.843000", "182759.847000", "182759.850000", "182759.853000", "182759.857000", "182759.860000", "182759.863000", "182759.866000", "182759.870000", "182759.873000", "182759.876000", "182759.879000", "182759.883000", "182839.843000", "182839.847000", "182839.850000", "182839.853000", "182839.856000", "182839.860000", "182839.863000", "182839.866000", "182839.870000", "182839.873000", "182839.876000", "182839.879000", "182839.883000", "182839.886000", "182839.889000", "182839.892000", "182839.896000", "182839.899000", "182839.902000", "182839.905000", "182839.915000", "182839.919000", "182839.922000", "182839.925000", "182839.929000", "182839.932000", "182839.936000", "182919.842000", "182919.846000", "182919.849000", "182919.852000", "182919.856000", "182919.859000", "182919.862000", "182919.865000", "182919.869000", "182919.872000", "182919.875000", "182919.878000", "182919.882000", "182919.885000", "182919.888000", "182919.891000", "182919.895000", "182919.898000", "182919.901000", "182919.904000", "182919.908000", "182919.912000", "182919.915000", "182919.919000", "182919.922000", "182919.925000", "182919.929000", "182942.019000", "182942.023000", "182942.027000", "182942.030000", "182942.033000", "182942.037000", "182942.040000", "182942.043000", "182942.047000", "182942.050000", "182942.053000", "182942.056000", "182942.060000", "182942.068000", "182942.072000"],
      "InstanceCreationTime": ["182559.874000", "182559.878000", "182559.882000", "182559.885000", "182559.888000", "182559.892000", "182559.895000", "182559.898000", "182559.902000", "182559.905000", "182559.908000", "182559.911000", "182559.914000", "182559.918000", "182559.921000", "182559.924000", "182559.928000", "182559.931000", "182559.934000", "182559.937000", "182559.940000", "182559.944000", "182559.947000", "182559.950000", "182559.954000", "182559.957000", "182619.844000", "182619.849000", "182619.852000", "182619.855000", "182619.858000", "182619.862000", "182619.865000", "182619.876000", "182619.880000", "182619.883000", "182619.886000", "182619.889000", "182619.892000", "182619.896000", "182619.900000", "182619.903000", "182619.907000", "182619.910000", "182619.913000", "182619.916000", "182639.842000", "182639.846000", "182639.849000", "182639.852000", "182639.855000", "182639.858000", "182639.862000", "182639.865000", "182639.869000", "182639.872000", "182639.875000", "182639.878000", "182639.882000", "182639.885000", "182639.888000", "182639.892000", "182639.895000", "182639.898000", "182639.901000", "182639.904000", "182639.908000", "182659.842000", "182659.845000", "182659.849000", "182659.852000", "182659.855000", "182659.858000", "182659.862000", "182659.865000", "182659.868000", "182659.871000", "182659.875000", "182659.878000", "182659.881000", "182659.885000", "182659.888000", "182659.891000", "182659.895000", "182659.898000", "182659.901000", "182659.904000", "182739.842000", "182739.848000", "182739.851000", "182739.871000", "182739.874000", "182739.877000", "182739.881000", "182739.884000", "182739.887000", "182739.890000", "182739.894000", "182739.897000", "182739.900000", "182739.904000", "182739.907000", "182739.910000", "182739.914000", "182739.917000", "182739.920000", "182739.923000", "182739.927000", "182739.930000", "182739.933000", "182739.936000", "182739.940000", "182739.943000", "182739.946000", "182739.950000", "182739.953000", "182739.956000", "182739.960000", "182739.963000", "182739.967000", "182759.843000", "182759.847000", "182759.850000", "182759.853000", "182759.857000", "182759.860000", "182759.863000", "182759.866000", "182759.870000", "182759.873000", "182759.876000", "182759.879000", "182759.883000", "182839.843000", "182839.847000", "182839.850000", "182839.853000", "182839.856000", "182839.860000", "182839.863000", "182839.866000", "182839.870000", "182839.873000", "182839.876000", "182839.879000", "182839.883000", "182839.886000", "182839.889000", "182839.892000", "182839.896000", "182839.899000", "182839.902000", "182839.905000", "182839.915000", "182839.919000", "182839.922000", "182839.925000", "182839.929000", "182839.932000", "182839.936000", "182919.842000", "182919.846000", "182919.849000", "182919.852000", "182919.856000", "182919.859000", "182919.862000", "182919.865000", "182919.869000", "182919.872000", "182919.875000", "182919.878000", "182919.882000", "182919.885000", "182919.888000", "182919.891000", "182919.895000", "182919.898000", "182919.901000", "182919.904000", "182919.908000", "182919.912000", "182919.915000", "182919.919000", "182919.922000", "182919.925000", "182919.929000", "182942.019000", "182942.023000", "182942.027000", "182942.030000", "182942.033000", "182942.037000", "182942.040000", "182942.043000", "182942.047000", "182942.050000", "182942.053000", "182942.056000", "182942.060000", "182942.068000", "182942.072000"],
      "InstanceNumber": [1, 2, 3, 4, 5, 6, 7, 8, 9, 10, 11, 12, 13, 14, 15, 16, 17, 18, 19, 20, 21, 22, 23, 24, 25, 26, 27, 28, 29, 30, 31, 32, 33, 34, 35, 36, 37, 38, 39, 40, 41, 42, 43, 44, 45, 46, 47, 48, 49, 50, 51, 52, 53, 54, 55, 56, 57, 58, 59, 60, 61, 62, 63, 64, 65, 66, 67, 68, 69, 70, 71, 72, 73, 74, 75, 76, 77, 78, 79, 80, 81, 82, 83, 84, 85, 86, 87, 88, 89, 90, 91, 92, 93, 94, 95, 96, 97, 98, 99, 100, 101, 102, 103, 104, 105, 106, 107, 108, 109, 110, 111, 112, 113, 114, 115, 116, 117, 118, 119, 120, 121, 122, 123, 124, 125, 126, 127, 128, 129, 130, 131, 132, 133, 134, 135, 136, 137, 138, 139, 140, 141, 142, 143, 144, 145, 146, 147, 148, 149, 150, 151, 152, 153, 154, 155, 156, 157, 158, 159, 160, 161, 162, 163, 164, 165, 166, 167, 168, 169, 170, 171, 172, 173, 174, 175, 176, 177, 178, 179, 180, 181, 182, 183, 184, 185, 186, 187, 188, 189, 190, 191, 192, 193, 194, 195, 196, 197, 198, 199, 200, 201, 202],
      "LargestImagePixelValue": [47851, 46606, 45147, 44846, 43569, 42464, 44480, 47911, 48493, 45846, 44379, 43277, 43637, 43559, 42993, 43013, 42516, 42158, 42370, 43076, 43943, 43483, 43536, 42293, 43434, 43252, 43792, 43428, 43463, 43987, 44402, 44279, 43948, 44281, 43921, 41146, 40913, 47914, 46253, 43710, 42641, 42270, 41285, 41986, 42978, 42369, 42519, 42417, 42535, 43021, 43282, 43369, 43406, 43830, 46716, 43175, 42676, 43121, 43008, 42500, 42479, 43084, 50133, 43331, 43642, 43579, 43669, 43724, 42896, 46743, 45666, 44025, 43187, 41980, 41938, 42350, 43021, 43385, 43219, 43526, 43722, 43198, 43173, 43885, 43926, 44041, 43783, 43395, 43583, 43136, 42830, 42368, 42782, 42201, 42525, 42902, 43750, 43376, 43167, 43065, 42600, 42360, 42583, 42649, 42583, 42919, 42714, 42012, 42740, 43310, 42417, 42116, 42952, 42392, 42465, 42061, 41559, 41900, 42222, 43070, 43176, 42779, 52292, 42486, 42486, 42056, 43838, 42472, 42805, 42616, 42487, 42792, 41887, 41999, 42638, 42862, 42487, 42248, 41390, 42172, 42318, 41394, 41502, 42345, 42212, 42614, 44862, 40982, 41988, 42206, 41144, 41961, 42800, 41359, 41880, 42324, 41318, 43472, 42079, 41245, 40549, 41236, 42250, 42375, 41520, 42323, 41364, 40102, 41677, 42751, 42972, 42485, 41064, 41913, 40685, 41833, 41206, 41332, 40526, 43380, 42027, 41474, 41095, 41063, 41234, 45099, 40664, 40446, 40866, 40583, 43285, 41507, 42421, 41065, 40963, 40682, 41823, 38935, 44696, 40573, 40428, 42492],
      "WindowCenter": [10574.0, 10535.0, 10530.0, 10526.0, 10499.0, 10482.0, 10500.0, 10536.0, 10538.0, 10522.0, 10503.0, 10486.0, 10475.0, 10465.0, 10456.0, 10457.0, 10451.0, 10464.0, 10475.0, 10485.0, 10490.0, 10479.0, 10473.0, 10480.0, 10517.0, 10522.0, 10508.0, 10474.0, 10470.0, 10481.0, 10500.0, 10494.0, 10465.0, 10475.0, 10487.0, 10496.0, 10509.0, 10562.0, 10527.0, 10497.0, 10471.0, 10456.0, 10442.0, 10462.0, 10466.0, 10473.0, 10490.0, 10492.0, 10491.0, 10478.0, 10477.0, 10499.0, 10518.0, 10519.0, 10519.0, 10469.0, 10468.0, 10478.0, 10481.0, 10475.0, 10488.0, 10481.0, 10523.0, 10453.0, 10452.0, 10474.0, 10511.0, 10539.0, 10537.0, 10569.0, 10539.0, 10499.0, 10479.0, 10459.0, 10450.0, 10464.0, 10475.0, 10507.0, 10512.0, 10498.0, 10487.0, 10474.0, 10480.0, 10497.0, 10507.0, 10505.0, 10506.0, 10500.0, 10508.0, 10507.0, 10508.0, 10500.0, 10512.0, 10507.0, 10522.0, 10513.0, 10501.0, 10484.0, 10481.0, 10489.0, 10493.0, 10495.0, 10504.0, 10502.0, 10503.0, 10494.0, 10495.0, 10501.0, 10510.0, 10515.0, 10511.0, 10497.0, 10508.0, 10504.0, 10510.0, 10506.0, 10502.0, 10502.0, 10492.0, 10499.0, 10508.0, 10516.0, 10606.0, 10524.0, 10522.0, 10510.0, 10516.0, 10505.0, 10506.0, 10510.0, 10534.0, 10550.0, 10535.0, 10532.0, 10520.0, 10516.0, 10518.0, 10519.0, 10527.0, 10526.0, 10523.0, 10516.0, 10510.0, 10521.0, 10512.0, 10517.0, 10539.0, 10520.0, 10525.0, 10513.0, 10449.0, 10508.0, 10520.0, 10523.0, 10543.0, 10530.0, 10489.0, 10496.0, 10477.0, 10476.0, 10484.0, 10490.0, 10499.0, 10505.0, 10502.0, 10510.0, 10498.0, 10478.0, 10483.0, 10492.0, 10500.0, 10512.0, 10513.0, 10524.0, 10488.0, 10476.0, 10451.0, 10465.0, 10480.0, 10544.0, 10523.0, 10498.0, 10486.0, 10485.0, 10486.0, 10523.0, 10492.0, 10513.0, 10510.0, 10495.0, 10500.0, 10487.0, 10490.0, 10498.0, 10516.0, 10528.0, 10549.0, 10503.0, 10535.0, 10478.0, 10459.0, 10503.0],
      "WindowWidth": [22482.0, 22380.0, 22369.0, 22354.0, 22293.0, 22256.0, 22291.0, 22364.0, 22367.0, 22332.0, 22292.0, 22258.0, 22228.0, 22206.0, 22185.0, 22186.0, 22179.0, 22207.0, 22239.0, 22257.0, 22266.0, 22240.0, 22227.0, 22253.0, 22333.0, 22346.0, 22306.0, 22225.0, 22217.0, 22244.0, 22298.0, 22280.0, 22210.0, 22233.0, 22267.0, 22302.0, 22335.0, 22423.0, 22347.0, 22281.0, 22226.0, 22187.0, 22157.0, 22201.0, 22213.0, 22232.0, 22275.0, 22285.0, 22282.0, 22244.0, 22239.0, 22291.0, 22338.0, 22342.0, 22331.0, 22222.0, 22225.0, 22242.0, 22248.0, 22236.0, 22274.0, 22247.0, 22334.0, 22182.0, 22177.0, 22234.0, 22327.0, 22398.0, 22398.0, 22448.0, 22378.0, 22287.0, 22241.0, 22199.0, 22180.0, 22220.0, 22237.0, 22313.0, 22331.0, 22291.0, 22265.0, 22232.0, 22243.0, 22285.0, 22309.0, 22302.0, 22305.0, 22294.0, 22319.0, 22310.0, 22315.0, 22297.0, 22320.0, 22312.0, 22345.0, 22323.0, 22291.0, 22252.0, 22250.0, 22270.0, 22284.0, 22286.0, 22309.0, 22301.0, 22307.0, 22282.0, 22286.0, 22305.0, 22321.0, 22327.0, 22321.0, 22287.0, 22306.0, 22302.0, 22313.0, 22307.0, 22304.0, 22305.0, 22279.0, 22289.0, 22313.0, 22332.0, 22533.0, 22352.0, 22346.0, 22320.0, 22334.0, 22311.0, 22306.0, 22318.0, 22375.0, 22407.0, 22378.0, 22372.0, 22337.0, 22327.0, 22339.0, 22343.0, 22365.0, 22364.0, 22350.0, 22334.0, 22327.0, 22346.0, 22321.0, 22330.0, 22382.0, 22351.0, 22358.0, 22323.0, 22174.0, 22311.0, 22337.0, 22353.0, 22401.0, 22376.0, 22278.0, 22283.0, 22242.0, 22240.0, 22266.0, 22281.0, 22291.0, 22304.0, 22300.0, 22317.0, 22292.0, 22262.0, 22262.0, 22266.0, 22288.0, 22320.0, 22326.0, 22357.0, 22275.0, 22237.0, 22180.0, 22214.0, 22253.0, 22396.0, 22347.0, 22286.0, 22271.0, 22270.0, 22262.0, 22336.0, 22278.0, 22335.0, 22318.0, 22283.0, 22293.0, 22263.0, 22271.0, 22299.0, 22338.0, 22367.0, 22414.0, 22322.0, 22370.0, 22245.0, 22203.0, 22300.0]
    },
    "slices": {}
  }
}