{
  "AcquisitionMatrixPE": 104,
  "AcquisitionNumber": 1,
  "AcquisitionTime": "11:38:2.452500",
  "BandwidthPerPixelPhaseEncode": 17.17,
  "BaseResolution": 104,
  "BodyPartExamined": "BRAIN",
  "CoilString": "HC1-7;NC1_2",
  "ConsistencyInfo": "N4_VE11C_LATEST_20160120",
  "ConversionSoftware": "dcm2niix",
  "ConversionSoftwareVersion": "v1.0.20190902",
  "DerivedVendorReportedEchoSpacing": 0.000560011,
  "DeviceSerialNumber": "167006",
  "DwellTime": 2.1e-06,
  "EchoTime": 0.037,
  "EchoTrainLength": 104,
  "EffectiveEchoSpacing": 0.000560011,
  "FlipAngle": 52,
  "ImageComments": "Unaliased_MB4_PE3_LB",
  "ImageOrientationPatientDICOM": [0.999774, 0.00764921, 0.0198188, 0.00348991, 0.861113, -0.508402],
  "ImageType": [
    "ORIGINAL",
    "PRIMARY",
    "P",
    "MB",
    "ND",
    "MOSAIC"
],
  "ImagingFrequency": 123.259,
  "InPlanePhaseEncodingDirectionDICOM": "COL",
  "InstitutionAddress": "Chemin_Queen-Mary_4565_Montreal_District_CA_H3W_1W5",
  "InstitutionName": "IUGM",
  "InstitutionalDepartmentName": "Department",
  "MRAcquisitionType": "2D",
  "MagneticFieldStrength": 3,
  "Manufacturer": "Siemens",
  "ManufacturersModelName": "Prisma_fit",
  "Modality": "MR",
  "MultibandAccelerationFactor": 4,
  "PartialFourier": 1,
  "PatientPosition": "HFS",
  "PercentPhaseFOV": 100,
  "PhaseEncodingDirection": "j",
  "PhaseEncodingSteps": 104,
  "PhaseResolution": 1,
  "PixelBandwidth": 2290,
  "ProcedureStepDescription": "localizers_retinotopy",
  "ProtocolName": "func_task-wedges",
  "PulseSequenceDetails": "%CustomerSeq%_cmrr_mbep2d_bold",
  "ReceiveCoilActiveElements": "HC1-7;NC1,2",
  "ReceiveCoilName": "HeadNeck_64",
  "ReconMatrixPE": 104,
  "RepetitionTime": 1.49,
  "SAR": 0.0437906,
  "ScanOptions": "FS",
  "ScanningSequence": "EP",
  "SequenceName": "epfid2d1_104",
  "SequenceVariant": "SK_SS",
  "SeriesDescription": "func_task-wedges",
  "SeriesNumber": 11,
  "ShimSetting": [616, -7195, -8867, 301, 8, -157, -9, -4],
  "SliceThickness": 2,
  "SliceTiming": [0, 0.785, 0.1, 0.8825, 0.1975, 0.98, 0.295, 1.08, 0.3925, 1.1775, 0.49, 1.275, 0.59, 1.3725, 0.6875, 0, 0.785, 0.1, 0.8825, 0.1975, 0.98, 0.295, 1.08, 0.3925, 1.1775, 0.49, 1.275, 0.59, 1.3725, 0.6875, 0, 0.785, 0.1, 0.8825, 0.1975, 0.98, 0.295, 1.08, 0.3925, 1.1775, 0.49, 1.275, 0.59, 1.3725, 0.6875, 0, 0.785, 0.1, 0.8825, 0.1975, 0.98, 0.295, 1.08, 0.3925, 1.1775, 0.49, 1.275, 0.59, 1.3725, 0.6875],
  "SoftwareVersions": "syngo_MR_E11",
  "SpacingBetweenSlices": 2,
  "StationName": "MRC35049",
  "TaskName": "wedges",
  "TotalReadoutTime": 0.0576811,
  "TxRefAmp": 257.236,
  "WipMemBlock": "eb2ad465-b4e0-48a9-bf69-39ee87d5f7bb||Sequence: R016 ve11c/master r/e634e98; Dec 19 2017 11:00:25 by eja",
  "dcmmeta_affine": [
    [-1.9995486736297607, 0.006979816593229771, 0.04191027209162712, 105.31884002685547],
    [-0.015298411250114441, 1.722225308418274, -1.0167133808135986, -50.88824462890625],
    [0.03963769972324371, 1.016804575920105, 1.72178316116333, -93.89627838134766],
    [0.0, 0.0, 0.0, 1.0]
],
  "dcmmeta_reorient_transform": [
    [0.0, -1.0, 0.0, 103.0],
    [1.0, 0.0, 0.0, 0.0],
    [0.0, 0.0, 1.0, 0.0],
    [0.0, 0.0, 0.0, 1.0]
],
  "dcmmeta_shape": [104, 104, 60, 202],
  "dcmmeta_slice_dim": 2,
  "dcmmeta_version": 0.6,
  "global": {
    "const": {
      "AcquisitionMatrix": [104, 0, 0, 104],
      "AngioFlag": "N",
      "BitsAllocated": 16,
      "BitsStored": 16,
      "BodyPartExamined": "BRAIN",
      "Columns": 832,
      "EchoNumbers": 1,
      "EchoTime": 37.0,
      "EchoTrainLength": 104,
      "FlipAngle": 52.0,
      "HighBit": 15,
      "ImageOrientationPatient": [0.99977432595278, 0.00764920565608, 0.01981885007998, 0.00348990827208, 0.86111262759574, -0.508402265077],
      "ImagePositionPatient": [-836.41412297114, -758.95957213319, 366.5233167133],
      "ImageType": [
        "ORIGINAL",
        "PRIMARY",
        "P",
        "MB",
        "ND",
        "MOSAIC"
],
      "ImagedNucleus": "1H",
      "ImagingFrequency": 123.259149,
      "InPlanePhaseEncodingDirection": "COL",
      "LargestImagePixelValue": 4095,
      "MRAcquisitionType": "2D",
      "MagneticFieldStrength": 3.0,
      "Manufacturer": "SIEMENS",
      "ManufacturerModelName": "Prisma_fit",
      "Modality": "MR",
      "NumberOfAverages": 1.0,
      "NumberOfPhaseEncodingSteps": 104,
      "PercentPhaseFieldOfView": 100.0,
      "PercentSampling": 100.0,
      "PerformedProcedureStepStartTime": "113404.994000",
      "PhotometricInterpretation": "MONOCHROME2",
      "PixelBandwidth": 2290.0,
      "PixelRepresentation": 0,
      "PixelSpacing": [2.0, 2.0],
      "ProtocolName": "func_task-wedges",
      "RepetitionTime": 1490.0,
      "RescaleIntercept": -4096.0,
      "RescaleSlope": 2.0,
      "RescaleType": "US",
      "Rows": 832,
      "SAR": 0.04379064068908,
      "SamplesPerPixel": 1,
      "ScanOptions": "FS",
      "ScanningSequence": "EP",
      "SequenceName": "epfid2d1_104",
      "SequenceVariant": [
        "SK",
        "SS"
],
      "SeriesDescription": "func_task-wedges",
      "SeriesNumber": 11,
      "SeriesTime": "113928.216000",
      "SliceLocation": -52.758165346275,
      "SliceThickness": 2.0,
      "SmallestImagePixelValue": 0,
      "SoftwareVersions": "syngo MR E11",
      "SpacingBetweenSlices": 1.9999999929459,
      "SpecificCharacterSet": "ISO_IR 100",
      "StudyID": "1",
      "StudyTime": "113404.930000",
      "TransmitCoilName": "Body",
      "VariableFlipAngleFlag": "N",
      "WindowCenterWidthExplanation": "Algo1",
      "dBdt": 0.0},
    "slices": {}
  },
  "time": {
    "samples": {
      "AcquisitionNumber": [1, 2, 3, 4, 5, 6, 7, 8, 9, 10, 11, 12, 13, 14, 15, 16, 17, 18, 19, 20, 21, 22, 23, 24, 25, 26, 27, 28, 29, 30, 31, 32, 33, 34, 35, 36, 37, 38, 39, 40, 41, 42, 43, 44, 45, 46, 47, 48, 49, 50, 51, 52, 53, 54, 55, 56, 57, 58, 59, 60, 61, 62, 63, 64, 65, 66, 67, 68, 69, 70, 71, 72, 73, 74, 75, 76, 77, 78, 79, 80, 81, 82, 83, 84, 85, 86, 87, 88, 89, 90, 91, 92, 93, 94, 95, 96, 97, 98, 99, 100, 101, 102, 103, 104, 105, 106, 107, 108, 109, 110, 111, 112, 113, 114, 115, 116, 117, 118, 119, 120, 121, 122, 123, 124, 125, 126, 127, 128, 129, 130, 131, 132, 133, 134, 135, 136, 137, 138, 139, 140, 141, 142, 143, 144, 145, 146, 147, 148, 149, 150, 151, 152, 153, 154, 155, 156, 157, 158, 159, 160, 161, 162, 163, 164, 165, 166, 167, 168, 169, 170, 171, 172, 173, 174, 175, 176, 177, 178, 179, 180, 181, 182, 183, 184, 185, 186, 187, 188, 189, 190, 191, 192, 193, 194, 195, 196, 197, 198, 199, 200, 201, 202],
      "AcquisitionTime": ["113802.452500", "113803.942500", "113805.432500", "113806.922500", "113808.412500", "113809.902500", "113811.392500", "113812.882500", "113814.372500", "113815.862500", "113817.352500", "113818.842500", "113820.332500", "113821.822500", "113823.312500", "113824.802500", "113826.292500", "113827.782500", "113829.272500", "113830.762500", "113832.252500", "113833.742500", "113835.232500", "113836.722500", "113838.212500", "113839.702500", "113841.192500", "113842.682500", "113844.172500", "113845.662500", "113847.152500", "113848.642500", "113850.132500", "113851.622500", "113853.112500", "113854.602500", "113856.092500", "113857.582500", "113859.072500", "113900.562500", "113902.052500", "113903.542500", "113905.032500", "113906.522500", "113908.012500", "113909.502500", "113910.992500", "113912.482500", "113913.972500", "113915.462500", "113916.952500", "113918.442500", "113919.932500", "113921.422500", "113922.912500", "113924.402500", "113925.892500", "113927.382500", "113928.872500", "113930.362500", "113931.852500", "113933.342500", "113934.832500", "113936.322500", "113937.812500", "113939.302500", "113940.792500", "113942.282500", "113943.772500", "113945.262500", "113946.752500", "113948.242500", "113949.732500", "113951.222500", "113952.712500", "113954.202500", "113955.692500", "113957.182500", "113958.672500", "114000.162500", "114001.652500", "114003.142500", "114004.632500", "114006.122500", "114007.612500", "114009.102500", "114010.592500", "114012.082500", "114013.572500", "114015.062500", "114016.552500", "114018.042500", "114019.532500", "114021.022500", "114022.512500", "114024.002500", "114025.492500", "114026.982500", "114028.472500", "114029.962500", "114031.452500", "114032.942500", "114034.432500", "114035.922500", "114037.412500", "114038.902500", "114040.392500", "114041.882500", "114043.372500", "114044.862500", "114046.352500", "114047.842500", "114049.332500", "114050.822500", "114052.312500", "114053.802500", "114055.292500", "114056.782500", "114058.272500", "114059.762500", "114101.252500", "114102.742500", "114104.232500", "114105.722500", "114107.212500", "114108.702500", "114110.192500", "114111.682500", "114113.172500", "114114.662500", "114116.152500", "114117.642500", "114119.132500", "114120.622500", "114122.112500", "114123.602500", "114125.092500", "114126.582500", "114128.072500", "114129.562500", "114131.052500", "114132.542500", "114134.032500", "114135.522500", "114137.012500", "114138.502500", "114139.992500", "114141.482500", "114142.972500", "114144.462500", "114145.952500", "114147.442500", "114148.932500", "114150.422500", "114151.912500", "114153.402500", "114154.892500", "114156.382500", "114157.872500", "114159.362500", "114200.852500", "114202.342500", "114203.832500", "114205.322500", "114206.812500", "114208.302500", "114209.792500", "114211.282500", "114212.772500", "114214.262500", "114215.752500", "114217.242500", "114218.732500", "114220.222500", "114221.712500", "114223.202500", "114224.692500", "114226.182500", "114227.672500", "114229.162500", "114230.652500", "114232.142500", "114233.632500", "114235.122500", "114236.612500", "114238.102500", "114239.592500", "114241.082500", "114242.572500", "114244.062500", "114245.552500", "114247.042500", "114248.532500", "114250.022500", "114251.512500", "114253.002500", "114254.492500", "114255.982500", "114257.472500", "114258.962500", "114300.452500", "114301.942500"],
      "ContentTime": ["113928.218000", "113928.221000", "113928.223000", "113928.226000", "113928.228000", "113928.231000", "113928.233000", "113928.236000", "113928.238000", "113928.241000", "113928.243000", "113928.245000", "113928.259000", "113928.261000", "113928.264000", "113928.266000", "113928.269000", "113928.271000", "113928.274000", "113928.276000", "113928.279000", "113928.281000", "113928.283000", "113928.286000", "113928.288000", "113928.291000", "113928.293000", "113928.296000", "113928.298000", "113928.301000", "113928.303000", "113928.305000", "113948.113000", "113948.116000", "113948.118000", "113948.121000", "113948.123000", "113948.125000", "113948.128000", "113948.130000", "113948.133000", "113948.135000", "113948.138000", "113948.140000", "113948.143000", "113948.145000", "113948.147000", "113948.150000", "113948.152000", "113948.155000", "113948.157000", "113948.160000", "114008.615000", "114008.618000", "114008.620000", "114008.623000", "114008.625000", "114008.627000", "114008.630000", "114008.632000", "114008.635000", "114008.637000", "114008.640000", "114008.642000", "114008.645000", "114008.647000", "114008.649000", "114008.652000", "114008.654000", "114008.657000", "114008.659000", "114008.662000", "114028.124000", "114028.126000", "114028.129000", "114028.131000", "114028.134000", "114028.136000", "114028.139000", "114028.141000", "114028.144000", "114028.146000", "114028.148000", "114028.151000", "114028.153000", "114028.156000", "114028.158000", "114028.161000", "114028.164000", "114028.166000", "114028.169000", "114028.171000", "114108.177000", "114108.179000", "114108.182000", "114108.184000", "114108.187000", "114108.189000", "114108.192000", "114108.194000", "114108.197000", "114108.200000", "114108.202000", "114108.204000", "114108.207000", "114108.210000", "114108.212000", "114108.215000", "114108.218000", "114108.220000", "114108.222000", "114108.225000", "114108.228000", "114108.230000", "114108.233000", "114108.236000", "114108.238000", "114108.241000", "114108.243000", "114108.246000", "114108.248000", "114108.251000", "114108.253000", "114108.256000", "114148.144000", "114148.147000", "114148.150000", "114148.152000", "114148.154000", "114148.157000", "114148.160000", "114148.162000", "114148.165000", "114148.167000", "114148.170000", "114148.172000", "114148.174000", "114148.177000", "114148.180000", "114148.182000", "114148.185000", "114148.187000", "114148.190000", "114148.192000", "114148.194000", "114148.197000", "114148.199000", "114148.202000", "114148.204000", "114148.207000", "114228.141000", "114228.143000", "114228.147000", "114228.149000", "114228.152000", "114228.154000", "114228.157000", "114228.159000", "114228.162000", "114228.165000", "114228.167000", "114228.169000", "114228.172000", "114228.174000", "114228.177000", "114228.179000", "114228.182000", "114228.192000", "114228.194000", "114228.196000", "114228.199000", "114228.202000", "114228.204000", "114228.207000", "114228.209000", "114228.212000", "114228.214000", "114304.242000", "114304.245000", "114304.247000", "114304.250000", "114304.252000", "114304.255000", "114304.258000", "114304.260000", "114304.263000", "114304.266000", "114304.268000", "114304.271000", "114304.274000", "114304.276000", "114304.279000", "114304.282000", "114304.285000", "114304.287000", "114304.290000", "114304.292000", "114304.295000", "114304.297000", "114304.300000", "114304.303000", "114304.305000"],
      "InstanceCreationTime": ["113928.218000", "113928.221000", "113928.223000", "113928.226000", "113928.228000", "113928.231000", "113928.233000", "113928.236000", "113928.238000", "113928.241000", "113928.243000", "113928.245000", "113928.259000", "113928.261000", "113928.264000", "113928.266000", "113928.269000", "113928.271000", "113928.274000", "113928.276000", "113928.279000", "113928.281000", "113928.283000", "113928.286000", "113928.288000", "113928.291000", "113928.293000", "113928.296000", "113928.298000", "113928.301000", "113928.303000", "113928.305000", "113948.113000", "113948.116000", "113948.118000", "113948.121000", "113948.123000", "113948.125000", "113948.128000", "113948.130000", "113948.133000", "113948.135000", "113948.138000", "113948.140000", "113948.143000", "113948.145000", "113948.147000", "113948.150000", "113948.152000", "113948.155000", "113948.157000", "113948.160000", "114008.615000", "114008.618000", "114008.620000", "114008.623000", "114008.625000", "114008.627000", "114008.630000", "114008.632000", "114008.635000", "114008.637000", "114008.640000", "114008.642000", "114008.645000", "114008.647000", "114008.649000", "114008.652000", "114008.654000", "114008.657000", "114008.659000", "114008.662000", "114028.124000", "114028.126000", "114028.129000", "114028.131000", "114028.134000", "114028.136000", "114028.139000", "114028.141000", "114028.144000", "114028.146000", "114028.148000", "114028.151000", "114028.153000", "114028.156000", "114028.158000", "114028.161000", "114028.164000", "114028.166000", "114028.169000", "114028.171000", "114108.177000", "114108.179000", "114108.182000", "114108.184000", "114108.187000", "114108.189000", "114108.192000", "114108.194000", "114108.197000", "114108.200000", "114108.202000", "114108.204000", "114108.207000", "114108.210000", "114108.212000", "114108.215000", "114108.218000", "114108.220000", "114108.222000", "114108.225000", "114108.228000", "114108.230000", "114108.233000", "114108.236000", "114108.238000", "114108.241000", "114108.243000", "114108.246000", "114108.248000", "114108.251000", "114108.253000", "114108.256000", "114148.144000", "114148.147000", "114148.150000", "114148.152000", "114148.154000", "114148.157000", "114148.160000", "114148.162000", "114148.165000", "114148.167000", "114148.170000", "114148.172000", "114148.174000", "114148.177000", "114148.180000", "114148.182000", "114148.185000", "114148.187000", "114148.190000", "114148.192000", "114148.194000", "114148.197000", "114148.199000", "114148.202000", "114148.204000", "114148.207000", "114228.141000", "114228.143000", "114228.147000", "114228.149000", "114228.152000", "114228.154000", "114228.157000", "114228.159000", "114228.162000", "114228.165000", "114228.167000", "114228.169000", "114228.172000", "114228.174000", "114228.177000", "114228.179000", "114228.182000", "114228.192000", "114228.194000", "114228.196000", "114228.199000", "114228.202000", "114228.204000", "114228.207000", "114228.209000", "114228.212000", "114228.214000", "114304.242000", "114304.245000", "114304.247000", "114304.250000", "114304.252000", "114304.255000", "114304.258000", "114304.260000", "114304.263000", "114304.266000", "114304.268000", "114304.271000", "114304.274000", "114304.276000", "114304.279000", "114304.282000", "114304.285000", "114304.287000", "114304.290000", "114304.292000", "114304.295000", "114304.297000", "114304.300000", "114304.303000", "114304.305000"],
      "InstanceNumber": [1, 2, 3, 4, 5, 6, 7, 8, 9, 10, 11, 12, 13, 14, 15, 16, 17, 18, 19, 20, 21, 22, 23, 24, 25, 26, 27, 28, 29, 30, 31, 32, 33, 34, 35, 36, 37, 38, 39, 40, 41, 42, 43, 44, 45, 46, 47, 48, 49, 50, 51, 52, 53, 54, 55, 56, 57, 58, 59, 60, 61, 62, 63, 64, 65, 66, 67, 68, 69, 70, 71, 72, 73, 74, 75, 76, 77, 78, 79, 80, 81, 82, 83, 84, 85, 86, 87, 88, 89, 90, 91, 92, 93, 94, 95, 96, 97, 98, 99, 100, 101, 102, 103, 104, 105, 106, 107, 108, 109, 110, 111, 112, 113, 114, 115, 116, 117, 118, 119, 120, 121, 122, 123, 124, 125, 126, 127, 128, 129, 130, 131, 132, 133, 134, 135, 136, 137, 138, 139, 140, 141, 142, 143, 144, 145, 146, 147, 148, 149, 150, 151, 152, 153, 154, 155, 156, 157, 158, 159, 160, 161, 162, 163, 164, 165, 166, 167, 168, 169, 170, 171, 172, 173, 174, 175, 176, 177, 178, 179, 180, 181, 182, 183, 184, 185, 186, 187, 188, 189, 190, 191, 192, 193, 194, 195, 196, 197, 198, 199, 200, 201, 202],
      "WindowCenter": [4826.0, 4822.0, 4820.0, 4826.0, 4820.0, 4824.0, 4818.0, 4826.0, 4820.0, 4822.0, 4824.0, 4824.0, 4822.0, 4822.0, 4820.0, 4826.0, 4820.0, 4824.0, 4818.0, 4822.0, 4824.0, 4824.0, 4820.0, 4824.0, 4824.0, 4822.0, 4822.0, 4822.0, 4820.0, 4822.0, 4794.0, 4822.0, 4820.0, 4824.0, 4822.0, 4824.0, 4824.0, 4826.0, 4822.0, 4826.0, 4822.0, 4798.0, 4824.0, 4826.0, 4820.0, 4822.0, 4820.0, 4824.0, 4820.0, 4822.0, 4820.0, 4822.0, 4824.0, 4820.0, 4798.0, 4820.0, 4818.0, 4824.0, 4818.0, 4822.0, 4798.0, 4818.0, 4796.0, 4820.0, 4820.0, 4816.0, 4826.0, 4798.0, 4822.0, 4850.0, 4826.0, 4826.0, 4828.0, 4832.0, 4830.0, 4822.0, 4818.0, 4818.0, 4848.0, 4852.0, 4824.0, 4822.0, 4822.0, 4816.0, 4822.0, 4824.0, 4824.0, 4820.0, 4820.0, 4820.0, 4796.0, 4822.0, 4798.0, 4820.0, 4820.0, 4818.0, 4878.0, 4884.0, 4824.0, 4858.0, 4828.0, 4826.0, 4826.0, 4818.0, 4820.0, 4852.0, 4856.0, 4852.0, 4824.0, 4820.0, 4822.0, 4822.0, 4818.0, 4820.0, 4794.0, 4822.0, 4820.0, 4852.0, 4850.0, 4824.0, 4820.0, 4822.0, 4828.0, 4826.0, 4828.0, 4824.0, 4820.0, 4820.0, 4824.0, 4822.0, 4818.0, 4824.0, 4822.0, 4816.0, 4820.0, 4818.0, 4820.0, 4796.0, 4796.0, 4820.0, 4796.0, 4822.0, 4822.0, 4794.0, 4818.0, 4796.0, 4820.0, 4818.0, 4798.0, 4796.0, 4822.0, 4824.0, 4824.0, 4824.0, 4794.0, 4798.0, 4820.0, 4818.0, 4796.0, 4820.0, 4800.0, 4818.0, 4820.0, 4818.0, 4818.0, 4794.0, 4796.0, 4818.0, 4794.0, 4820.0, 4794.0, 4798.0, 4796.0, 4794.0, 4798.0, 4798.0, 4820.0, 4794.0, 4820.0, 4798.0, 4794.0, 4798.0, 4796.0, 4796.0, 4796.0, 4798.0, 4794.0, 4820.0, 4822.0, 4818.0, 4818.0, 4796.0, 4796.0, 4794.0, 4796.0, 4826.0, 4818.0, 4794.0, 4798.0, 4796.0, 4822.0, 4820.0],
      "WindowWidth": [18568.0, 18566.0, 18574.0, 18568.0, 18568.0, 18568.0, 18564.0, 18568.0, 18562.0, 18568.0, 18568.0, 18572.0, 18566.0, 18560.0, 18566.0, 18564.0, 18564.0, 18558.0, 18560.0, 18568.0, 18562.0, 18566.0, 18572.0, 18570.0, 18566.0, 18570.0, 18570.0, 18562.0, 18564.0, 18560.0, 18536.0, 18568.0, 18560.0, 18568.0, 18564.0, 18562.0, 18566.0, 18568.0, 18560.0, 18562.0, 18564.0, 18536.0, 18566.0, 18564.0, 18562.0, 18562.0, 18562.0, 18570.0, 18576.0, 18562.0, 18562.0, 18562.0, 18564.0, 18566.0, 18532.0, 18566.0, 18560.0, 18566.0, 18574.0, 18572.0, 18540.0, 18570.0, 18536.0, 18564.0, 18566.0, 18566.0, 18570.0, 18534.0, 18566.0, 18606.0, 18564.0, 18568.0, 18596.0, 18596.0, 18582.0, 18590.0, 18574.0, 18570.0, 18604.0, 18612.0, 18572.0, 18564.0, 18564.0, 18574.0, 18574.0, 18582.0, 18568.0, 18568.0, 18566.0, 18564.0, 18534.0, 18564.0, 18538.0, 18566.0, 18564.0, 18564.0, 18648.0, 18660.0, 18560.0, 18628.0, 18610.0, 18610.0, 18602.0, 18576.0, 18570.0, 18624.0, 18632.0, 18624.0, 18576.0, 18562.0, 18574.0, 18588.0, 18584.0, 18584.0, 18542.0, 18570.0, 18566.0, 18616.0, 18606.0, 18566.0, 18560.0, 18564.0, 18570.0, 18584.0, 18596.0, 18570.0, 18562.0, 18566.0, 18568.0, 18564.0, 18560.0, 18570.0, 18568.0, 18566.0, 18566.0, 18572.0, 18564.0, 18542.0, 18540.0, 18564.0, 18534.0, 18570.0, 18564.0, 18534.0, 18562.0, 18536.0, 18580.0, 18580.0, 18536.0, 18534.0, 18566.0, 18574.0, 18568.0, 18570.0, 18532.0, 18536.0, 18578.0, 18578.0, 18536.0, 18572.0, 18534.0, 18568.0, 18560.0, 18562.0, 18566.0, 18534.0, 18536.0, 18566.0, 18540.0, 18566.0, 18538.0, 18534.0, 18536.0, 18532.0, 18532.0, 18534.0, 18564.0, 18532.0, 18564.0, 18534.0, 18540.0, 18534.0, 18536.0, 18540.0, 18536.0, 18538.0, 18534.0, 18566.0, 18568.0, 18568.0, 18566.0, 18540.0, 18532.0, 18536.0, 18532.0, 18564.0, 18560.0, 18536.0, 18536.0, 18536.0, 18582.0, 18578.0]
    },
    "slices": {}
  }
}