{
  "AcquisitionMatrixPE": 104,
  "AcquisitionNumber": 1,
  "AcquisitionTime": "11:44:34.632500",
  "BandwidthPerPixelPhaseEncode": 17.17,
  "BaseResolution": 104,
  "BodyPartExamined": "BRAIN",
  "CoilString": "HC1-7;NC1_2",
  "ConsistencyInfo": "N4_VE11C_LATEST_20160120",
  "ConversionSoftware": "dcm2niix",
  "ConversionSoftwareVersion": "v1.0.20190902",
  "DerivedVendorReportedEchoSpacing": 0.000560011,
  "DeviceSerialNumber": "167006",
  "DwellTime": 2.1e-06,
  "EchoTime": 0.037,
  "EchoTrainLength": 104,
  "EffectiveEchoSpacing": 0.000560011,
  "FlipAngle": 52,
  "ImageComments": "Unaliased_MB4_PE3_LB",
  "ImageOrientationPatientDICOM": [0.999774, 0.00764921, 0.0198188, 0.00348991, 0.861113, -0.508402],
  "ImageType": [
    "ORIGINAL",
    "PRIMARY",
    "M",
    "MB",
    "ND",
    "MOSAIC"
],
  "ImagingFrequency": 123.259,
  "InPlanePhaseEncodingDirectionDICOM": "COL",
  "InstitutionAddress": "Chemin_Queen-Mary_4565_Montreal_District_CA_H3W_1W5",
  "InstitutionName": "IUGM",
  "InstitutionalDepartmentName": "Department",
  "MRAcquisitionType": "2D",
  "MagneticFieldStrength": 3,
  "Manufacturer": "Siemens",
  "ManufacturersModelName": "Prisma_fit",
  "Modality": "MR",
  "MultibandAccelerationFactor": 4,
  "PartialFourier": 1,
  "PatientPosition": "HFS",
  "PercentPhaseFOV": 100,
  "PhaseEncodingDirection": "j",
  "PhaseEncodingSteps": 104,
  "PhaseResolution": 1,
  "PixelBandwidth": 2290,
  "ProcedureStepDescription": "localizers_retinotopy",
  "ProtocolName": "func_task-rings",
  "PulseSequenceDetails": "%CustomerSeq%_cmrr_mbep2d_bold",
  "ReceiveCoilActiveElements": "HC1-7;NC1,2",
  "ReceiveCoilName": "HeadNeck_64",
  "ReconMatrixPE": 104,
  "RepetitionTime": 1.49,
  "SAR": 0.0437906,
  "ScanOptions": "FS",
  "ScanningSequence": "EP",
  "SequenceName": "epfid2d1_104",
  "SequenceVariant": "SK_SS",
  "SeriesDescription": "func_task-rings",
  "SeriesNumber": 13,
  "ShimSetting": [616, -7195, -8867, 301, 8, -157, -9, -4],
  "SliceThickness": 2,
  "SliceTiming": [0, 0.7825, 0.0975, 0.88, 0.195, 0.98, 0.2925, 1.0775, 0.3925, 1.175, 0.49, 1.2725, 0.5875, 1.37, 0.685, 0, 0.7825, 0.0975, 0.88, 0.195, 0.98, 0.2925, 1.0775, 0.3925, 1.175, 0.49, 1.2725, 0.5875, 1.37, 0.685, 0, 0.7825, 0.0975, 0.88, 0.195, 0.98, 0.2925, 1.0775, 0.3925, 1.175, 0.49, 1.2725, 0.5875, 1.37, 0.685, 0, 0.7825, 0.0975, 0.88, 0.195, 0.98, 0.2925, 1.0775, 0.3925, 1.175, 0.49, 1.2725, 0.5875, 1.37, 0.685],
  "SoftwareVersions": "syngo_MR_E11",
  "SpacingBetweenSlices": 2,
  "StationName": "MRC35049",
  "TaskName": "rings",
  "TotalReadoutTime": 0.0576811,
  "TxRefAmp": 257.236,
  "WipMemBlock": "32e6ba3b-fdd1-4134-b5cd-f8809106645f||Sequence: R016 ve11c/master r/e634e98; Dec 19 2017 11:00:25 by eja",
  "dcmmeta_affine": [
    [-1.9995486736297607, 0.006979816593229771, 0.04191027209162712, 105.31884002685547],
    [-0.015298411250114441, 1.722225308418274, -1.0167133808135986, -50.88824462890625],
    [0.03963769972324371, 1.016804575920105, 1.72178316116333, -93.89627838134766],
    [0.0, 0.0, 0.0, 1.0]
],
  "dcmmeta_reorient_transform": [
    [0.0, -1.0, 0.0, 103.0],
    [1.0, 0.0, 0.0, 0.0],
    [0.0, 0.0, 1.0, 0.0],
    [0.0, 0.0, 0.0, 1.0]
],
  "dcmmeta_shape": [104, 104, 60, 202],
  "dcmmeta_slice_dim": 2,
  "dcmmeta_version": 0.6,
  "global": {
    "const": {
      "AcquisitionMatrix": [104, 0, 0, 104],
      "AngioFlag": "N",
      "BitsAllocated": 16,
      "BitsStored": 16,
      "BodyPartExamined": "BRAIN",
      "Columns": 832,
      "EchoNumbers": 1,
      "EchoTime": 37.0,
      "EchoTrainLength": 104,
      "FlipAngle": 52.0,
      "HighBit": 15,
      "ImageOrientationPatient": [0.99977432595278, 0.00764920565608, 0.01981885007998, 0.00348990827208, 0.86111262759574, -0.508402265077],
      "ImagePositionPatient": [-836.41412297114, -758.95957213319, 366.5233167133],
      "ImageType": [
        "ORIGINAL",
        "PRIMARY",
        "M",
        "MB",
        "ND",
        "MOSAIC"
],
      "ImagedNucleus": "1H",
      "ImagingFrequency": 123.259155,
      "InPlanePhaseEncodingDirection": "COL",
      "MRAcquisitionType": "2D",
      "MagneticFieldStrength": 3.0,
      "Manufacturer": "SIEMENS",
      "ManufacturerModelName": "Prisma_fit",
      "Modality": "MR",
      "NumberOfAverages": 1.0,
      "NumberOfPhaseEncodingSteps": 104,
      "PercentPhaseFieldOfView": 100.0,
      "PercentSampling": 100.0,
      "PerformedProcedureStepStartTime": "113404.994000",
      "PhotometricInterpretation": "MONOCHROME2",
      "PixelBandwidth": 2290.0,
      "PixelRepresentation": 0,
      "PixelSpacing": [2.0, 2.0],
      "ProtocolName": "func_task-rings",
      "RepetitionTime": 1490.0,
      "Rows": 832,
      "SAR": 0.04379064068908,
      "SamplesPerPixel": 1,
      "ScanOptions": "FS",
      "ScanningSequence": "EP",
      "SequenceName": "epfid2d1_104",
      "SequenceVariant": [
        "SK",
        "SS"
],
      "SeriesDescription": "func_task-rings",
      "SeriesNumber": 13,
      "SeriesTime": "114600.305000",
      "SliceLocation": -52.758165346275,
      "SliceThickness": 2.0,
      "SmallestImagePixelValue": 0,
      "SoftwareVersions": "syngo MR E11",
      "SpacingBetweenSlices": 1.9999999929459,
      "SpecificCharacterSet": "ISO_IR 100",
      "StudyID": "1",
      "StudyTime": "113404.930000",
      "TransmitCoilName": "Body",
      "VariableFlipAngleFlag": "N",
      "WindowCenterWidthExplanation": "Algo1",
      "dBdt": 0.0},
    "slices": {}
  },
  "time": {
    "samples": {
      "AcquisitionNumber": [1, 2, 3, 4, 5, 6, 7, 8, 9, 10, 11, 12, 13, 14, 15, 16, 17, 18, 19, 20, 21, 22, 23, 24, 25, 26, 27, 28, 29, 30, 31, 32, 33, 34, 35, 36, 37, 38, 39, 40, 41, 42, 43, 44, 45, 46, 47, 48, 49, 50, 51, 52, 53, 54, 55, 56, 57, 58, 59, 60, 61, 62, 63, 64, 65, 66, 67, 68, 69, 70, 71, 72, 73, 74, 75, 76, 77, 78, 79, 80, 81, 82, 83, 84, 85, 86, 87, 88, 89, 90, 91, 92, 93, 94, 95, 96, 97, 98, 99, 100, 101, 102, 103, 104, 105, 106, 107, 108, 109, 110, 111, 112, 113, 114, 115, 116, 117, 118, 119, 120, 121, 122, 123, 124, 125, 126, 127, 128, 129, 130, 131, 132, 133, 134, 135, 136, 137, 138, 139, 140, 141, 142, 143, 144, 145, 146, 147, 148, 149, 150, 151, 152, 153, 154, 155, 156, 157, 158, 159, 160, 161, 162, 163, 164, 165, 166, 167, 168, 169, 170, 171, 172, 173, 174, 175, 176, 177, 178, 179, 180, 181, 182, 183, 184, 185, 186, 187, 188, 189, 190, 191, 192, 193, 194, 195, 196, 197, 198, 199, 200, 201, 202],
      "AcquisitionTime": ["114434.632500", "114436.122500", "114437.612500", "114439.102500", "114440.592500", "114442.082500", "114443.572500", "114445.062500", "114446.552500", "114448.042500", "114449.532500", "114451.022500", "114452.512500", "114454.002500", "114455.492500", "114456.982500", "114458.472500", "114459.962500", "114501.452500", "114502.942500", "114504.432500", "114505.922500", "114507.412500", "114508.902500", "114510.392500", "114511.882500", "114513.372500", "114514.862500", "114516.352500", "114517.842500", "114519.332500", "114520.822500", "114522.312500", "114523.802500", "114525.292500", "114526.782500", "114528.272500", "114529.762500", "114531.252500", "114532.742500", "114534.232500", "114535.722500", "114537.212500", "114538.702500", "114540.192500", "114541.682500", "114543.172500", "114544.662500", "114546.152500", "114547.642500", "114549.132500", "114550.622500", "114552.112500", "114553.602500", "114555.092500", "114556.582500", "114558.072500", "114559.562500", "114601.052500", "114602.542500", "114604.032500", "114605.522500", "114607.012500", "114608.502500", "114609.992500", "114611.482500", "114612.972500", "114614.462500", "114615.952500", "114617.442500", "114618.932500", "114620.422500", "114621.912500", "114623.402500", "114624.892500", "114626.382500", "114627.872500", "114629.362500", "114630.852500", "114632.342500", "114633.832500", "114635.322500", "114636.812500", "114638.302500", "114639.792500", "114641.282500", "114642.772500", "114644.262500", "114645.752500", "114647.242500", "114648.732500", "114650.222500", "114651.712500", "114653.202500", "114654.692500", "114656.182500", "114657.672500", "114659.162500", "114700.652500", "114702.142500", "114703.632500", "114705.122500", "114706.612500", "114708.102500", "114709.592500", "114711.082500", "114712.572500", "114714.062500", "114715.552500", "114717.042500", "114718.532500", "114720.022500", "114721.512500", "114723.002500", "114724.492500", "114725.982500", "114727.472500", "114728.962500", "114730.452500", "114731.942500", "114733.432500", "114734.922500", "114736.412500", "114737.902500", "114739.392500", "114740.882500", "114742.372500", "114743.862500", "114745.352500", "114746.842500", "114748.332500", "114749.822500", "114751.312500", "114752.802500", "114754.292500", "114755.782500", "114757.272500", "114758.762500", "114800.252500", "114801.742500", "114803.232500", "114804.722500", "114806.212500", "114807.702500", "114809.192500", "114810.682500", "114812.172500", "114813.662500", "114815.152500", "114816.642500", "114818.132500", "114819.622500", "114821.112500", "114822.602500", "114824.092500", "114825.582500", "114827.072500", "114828.562500", "114830.052500", "114831.542500", "114833.032500", "114834.522500", "114836.012500", "114837.502500", "114838.992500", "114840.482500", "114841.972500", "114843.462500", "114844.952500", "114846.442500", "114847.932500", "114849.422500", "114850.912500", "114852.402500", "114853.892500", "114855.382500", "114856.872500", "114858.362500", "114859.852500", "114901.342500", "114902.832500", "114904.322500", "114905.812500", "114907.302500", "114908.792500", "114910.282500", "114911.772500", "114913.262500", "114914.752500", "114916.242500", "114917.732500", "114919.222500", "114920.712500", "114922.202500", "114923.692500", "114925.182500", "114926.672500", "114928.162500", "114929.652500", "114931.142500", "114932.632500", "114934.122500"],
      "ContentTime": ["114600.308000", "114600.312000", "114600.315000", "114600.318000", "114600.321000", "114600.325000", "114600.328000", "114600.337000", "114600.341000", "114600.344000", "114600.347000", "114600.351000", "114600.354000", "114600.357000", "114600.361000", "114600.364000", "114600.367000", "114600.370000", "114600.373000", "114600.377000", "114600.380000", "114600.384000", "114600.387000", "114600.390000", "114600.393000", "114600.397000", "114600.400000", "114600.403000", "114600.407000", "114600.410000", "114600.413000", "114620.266000", "114620.269000", "114620.273000", "114620.276000", "114620.279000", "114620.282000", "114620.286000", "114620.289000", "114620.293000", "114620.296000", "114620.299000", "114620.302000", "114620.306000", "114620.309000", "114620.312000", "114620.315000", "114620.319000", "114620.322000", "114620.325000", "114620.328000", "114640.265000", "114640.269000", "114640.272000", "114640.276000", "114640.279000", "114640.282000", "114640.285000", "114640.288000", "114640.292000", "114640.295000", "114640.298000", "114640.301000", "114640.305000", "114640.308000", "114640.332000", "114640.335000", "114640.339000", "114640.342000", "114640.345000", "114640.348000", "114640.351000", "114700.264000", "114700.268000", "114700.279000", "114700.282000", "114700.285000", "114700.289000", "114700.292000", "114700.295000", "114700.298000", "114700.302000", "114700.305000", "114700.308000", "114700.311000", "114700.314000", "114700.318000", "114700.321000", "114700.324000", "114700.327000", "114700.331000", "114700.334000", "114740.264000", "114740.268000", "114740.271000", "114740.274000", "114740.278000", "114740.281000", "114740.284000", "114740.288000", "114740.291000", "114740.294000", "114740.297000", "114740.301000", "114740.305000", "114740.308000", "114740.311000", "114740.315000", "114740.318000", "114740.321000", "114740.324000", "114740.328000", "114740.331000", "114740.334000", "114740.338000", "114740.341000", "114740.344000", "114740.347000", "114740.351000", "114740.354000", "114740.357000", "114740.361000", "114740.364000", "114820.265000", "114820.269000", "114820.272000", "114820.275000", "114820.278000", "114820.282000", "114820.285000", "114820.288000", "114820.292000", "114820.295000", "114820.298000", "114820.301000", "114820.305000", "114820.308000", "114820.311000", "114820.315000", "114820.318000", "114820.321000", "114820.324000", "114820.328000", "114820.331000", "114820.334000", "114820.338000", "114820.341000", "114820.344000", "114820.347000", "114820.350000", "114900.265000", "114900.269000", "114900.272000", "114900.275000", "114900.278000", "114900.282000", "114900.285000", "114900.288000", "114900.291000", "114900.295000", "114900.298000", "114900.301000", "114900.304000", "114900.308000", "114900.311000", "114900.314000", "114900.317000", "114900.320000", "114900.324000", "114900.327000", "114900.346000", "114900.349000", "114900.360000", "114900.363000", "114900.366000", "114900.369000", "114900.373000", "114936.707000", "114936.711000", "114936.714000", "114936.717000", "114936.720000", "114936.724000", "114936.727000", "114936.731000", "114936.734000", "114936.737000", "114936.740000", "114936.744000", "114936.747000", "114936.751000", "114936.754000", "114936.757000", "114936.761000", "114936.764000", "114936.767000", "114936.770000", "114936.774000", "114936.777000", "114936.780000", "114936.784000", "114936.787000"],
      "InstanceCreationTime": ["114600.308000", "114600.312000", "114600.315000", "114600.318000", "114600.321000", "114600.325000", "114600.328000", "114600.337000", "114600.341000", "114600.344000", "114600.347000", "114600.351000", "114600.354000", "114600.357000", "114600.361000", "114600.364000", "114600.367000", "114600.370000", "114600.373000", "114600.377000", "114600.380000", "114600.384000", "114600.387000", "114600.390000", "114600.393000", "114600.397000", "114600.400000", "114600.403000", "114600.407000", "114600.410000", "114600.413000", "114620.266000", "114620.269000", "114620.273000", "114620.276000", "114620.279000", "114620.282000", "114620.286000", "114620.289000", "114620.293000", "114620.296000", "114620.299000", "114620.302000", "114620.306000", "114620.309000", "114620.312000", "114620.315000", "114620.319000", "114620.322000", "114620.325000", "114620.328000", "114640.265000", "114640.269000", "114640.272000", "114640.276000", "114640.279000", "114640.282000", "114640.285000", "114640.288000", "114640.292000", "114640.295000", "114640.298000", "114640.301000", "114640.305000", "114640.308000", "114640.332000", "114640.335000", "114640.339000", "114640.342000", "114640.345000", "114640.348000", "114640.351000", "114700.264000", "114700.268000", "114700.279000", "114700.282000", "114700.285000", "114700.289000", "114700.292000", "114700.295000", "114700.298000", "114700.302000", "114700.305000", "114700.308000", "114700.311000", "114700.314000", "114700.318000", "114700.321000", "114700.324000", "114700.327000", "114700.331000", "114700.334000", "114740.264000", "114740.268000", "114740.271000", "114740.274000", "114740.278000", "114740.281000", "114740.284000", "114740.288000", "114740.291000", "114740.294000", "114740.297000", "114740.301000", "114740.305000", "114740.308000", "114740.311000", "114740.315000", "114740.318000", "114740.321000", "114740.324000", "114740.328000", "114740.331000", "114740.334000", "114740.338000", "114740.341000", "114740.344000", "114740.347000", "114740.351000", "114740.354000", "114740.357000", "114740.361000", "114740.364000", "114820.265000", "114820.269000", "114820.272000", "114820.275000", "114820.278000", "114820.282000", "114820.285000", "114820.288000", "114820.292000", "114820.295000", "114820.298000", "114820.301000", "114820.305000", "114820.308000", "114820.311000", "114820.315000", "114820.318000", "114820.321000", "114820.324000", "114820.328000", "114820.331000", "114820.334000", "114820.338000", "114820.341000", "114820.344000", "114820.347000", "114820.350000", "114900.265000", "114900.269000", "114900.272000", "114900.275000", "114900.278000", "114900.282000", "114900.285000", "114900.288000", "114900.291000", "114900.295000", "114900.298000", "114900.301000", "114900.304000", "114900.308000", "114900.311000", "114900.314000", "114900.317000", "114900.320000", "114900.324000", "114900.327000", "114900.346000", "114900.349000", "114900.360000", "114900.363000", "114900.366000", "114900.369000", "114900.373000", "114936.707000", "114936.711000", "114936.714000", "114936.717000", "114936.720000", "114936.724000", "114936.727000", "114936.731000", "114936.734000", "114936.737000", "114936.740000", "114936.744000", "114936.747000", "114936.751000", "114936.754000", "114936.757000", "114936.761000", "114936.764000", "114936.767000", "114936.770000", "114936.774000", "114936.777000", "114936.780000", "114936.784000", "114936.787000"],
      "InstanceNumber": [1, 2, 3, 4, 5, 6, 7, 8, 9, 10, 11, 12, 13, 14, 15, 16, 17, 18, 19, 20, 21, 22, 23, 24, 25, 26, 27, 28, 29, 30, 31, 32, 33, 34, 35, 36, 37, 38, 39, 40, 41, 42, 43, 44, 45, 46, 47, 48, 49, 50, 51, 52, 53, 54, 55, 56, 57, 58, 59, 60, 61, 62, 63, 64, 65, 66, 67, 68, 69, 70, 71, 72, 73, 74, 75, 76, 77, 78, 79, 80, 81, 82, 83, 84, 85, 86, 87, 88, 89, 90, 91, 92, 93, 94, 95, 96, 97, 98, 99, 100, 101, 102, 103, 104, 105, 106, 107, 108, 109, 110, 111, 112, 113, 114, 115, 116, 117, 118, 119, 120, 121, 122, 123, 124, 125, 126, 127, 128, 129, 130, 131, 132, 133, 134, 135, 136, 137, 138, 139, 140, 141, 142, 143, 144, 145, 146, 147, 148, 149, 150, 151, 152, 153, 154, 155, 156, 157, 158, 159, 160, 161, 162, 163, 164, 165, 166, 167, 168, 169, 170, 171, 172, 173, 174, 175, 176, 177, 178, 179, 180, 181, 182, 183, 184, 185, 186, 187, 188, 189, 190, 191, 192, 193, 194, 195, 196, 197, 198, 199, 200, 201, 202],
      "LargestImagePixelValue": [47727, 46644, 46248, 45962, 46181, 45775, 45486, 44987, 45679, 44754, 45304, 44688, 45256, 45073, 45256, 44776, 44816, 45218, 45393, 45385, 46113, 45692, 45497, 45543, 45859, 45567, 45061, 45325, 45572, 45297, 45655, 44703, 44916, 44109, 44814, 45482, 44775, 45241, 45397, 45186, 45518, 45570, 45292, 45981, 45674, 45549, 45327, 45334, 45493, 45599, 45435, 45670, 45343, 45523, 45282, 45160, 45491, 44723, 44883, 45062, 44849, 44851, 45475, 45044, 44937, 44911, 45140, 45155, 44861, 45069, 45246, 44986, 45067, 45023, 45707, 45504, 45800, 44461, 45488, 45603, 45603, 45613, 45733, 45783, 45653, 45500, 45492, 45372, 45091, 45406, 45404, 45090, 45312, 45091, 45272, 45326, 45208, 44980, 45588, 45205, 45238, 45413, 45508, 45148, 45667, 45368, 44786, 45131, 45025, 45818, 45624, 45332, 45414, 45568, 45751, 45628, 46013, 45802, 45322, 45652, 45648, 45408, 46027, 45853, 45750, 45683, 45494, 45821, 45163, 45494, 45841, 45820, 45936, 45236, 45949, 45756, 45883, 45183, 45463, 46122, 45978, 45397, 45670, 45917, 45923, 44293, 45227, 45664, 45125, 45935, 45460, 45662, 45256, 45874, 45569, 45512, 45850, 45580, 45506, 45608, 45599, 45524, 45677, 45273, 45278, 45525, 45694, 45088, 45007, 44572, 45107, 45420, 45552, 45393, 45295, 45428, 45423, 45705, 45674, 45297, 45513, 45453, 45767, 45771, 45656, 45585, 45518, 45698, 45693, 45674, 45203, 45257, 45942, 45904, 45485, 45266, 45449, 45768, 45386, 45519, 45812, 45972],
      "WindowCenter": [11159.0, 11088.0, 11052.0, 11024.0, 11017.0, 11014.0, 11022.0, 11019.0, 11040.0, 11048.0, 11060.0, 11042.0, 11003.0, 11000.0, 11004.0, 11036.0, 11044.0, 11072.0, 11079.0, 11109.0, 11105.0, 11110.0, 11098.0, 11068.0, 11078.0, 11083.0, 11079.0, 11067.0, 11037.0, 11019.0, 11042.0, 11070.0, 11081.0, 11078.0, 11063.0, 11060.0, 11052.0, 11045.0, 11040.0, 11047.0, 11056.0, 11065.0, 11066.0, 11059.0, 11065.0, 11075.0, 11085.0, 11078.0, 11067.0, 11064.0, 11051.0, 11061.0, 11045.0, 11035.0, 11021.0, 11020.0, 11028.0, 11023.0, 11031.0, 11042.0, 11042.0, 11036.0, 11046.0, 11057.0, 11054.0, 11044.0, 11040.0, 11032.0, 11026.0, 11029.0, 11038.0, 11061.0, 11080.0, 11063.0, 11063.0, 11061.0, 11074.0, 11036.0, 10999.0, 10975.0, 10988.0, 11002.0, 11014.0, 11014.0, 11010.0, 11006.0, 11011.0, 11018.0, 11013.0, 11011.0, 11020.0, 11029.0, 11037.0, 11033.0, 11039.0, 11059.0, 11077.0, 11074.0, 11071.0, 11057.0, 11048.0, 11047.0, 11031.0, 11009.0, 11027.0, 11049.0, 11058.0, 11064.0, 11047.0, 11035.0, 11071.0, 11105.0, 11108.0, 11057.0, 11054.0, 11057.0, 11061.0, 11083.0, 11063.0, 11038.0, 11046.0, 11029.0, 11041.0, 11053.0, 11055.0, 11063.0, 11051.0, 11046.0, 11042.0, 11040.0, 11036.0, 11028.0, 11023.0, 11014.0, 11017.0, 11020.0, 11020.0, 11017.0, 11026.0, 11041.0, 11063.0, 11059.0, 11073.0, 11089.0, 11112.0, 11080.0, 11046.0, 11022.0, 10997.0, 11046.0, 11067.0, 11070.0, 11042.0, 11028.0, 11018.0, 11008.0, 11003.0, 10990.0, 10995.0, 11006.0, 11023.0, 11036.0, 11050.0, 11040.0, 11040.0, 11055.0, 11067.0, 11085.0, 11072.0, 11062.0, 11057.0, 11047.0, 11045.0, 11037.0, 11035.0, 11027.0, 11018.0, 11008.0, 11031.0, 11044.0, 11045.0, 11019.0, 11015.0, 11034.0, 11043.0, 11045.0, 11007.0, 11031.0, 11054.0, 11054.0, 11031.0, 10990.0, 10997.0, 11015.0, 11037.0, 11050.0, 11037.0, 11027.0, 11008.0, 10997.0, 10994.0, 10991.0],
      "WindowWidth": [24087.0, 23885.0, 23779.0, 23705.0, 23681.0, 23674.0, 23691.0, 23689.0, 23731.0, 23755.0, 23779.0, 23743.0, 23652.0, 23644.0, 23652.0, 23730.0, 23748.0, 23808.0, 23828.0, 23895.0, 23882.0, 23895.0, 23870.0, 23798.0, 23816.0, 23832.0, 23824.0, 23795.0, 23725.0, 23681.0, 23733.0, 23802.0, 23824.0, 23819.0, 23782.0, 23771.0, 23756.0, 23742.0, 23729.0, 23744.0, 23767.0, 23785.0, 23786.0, 23769.0, 23783.0, 23809.0, 23832.0, 23819.0, 23791.0, 23783.0, 23753.0, 23775.0, 23738.0, 23715.0, 23684.0, 23682.0, 23702.0, 23693.0, 23710.0, 23736.0, 23736.0, 23722.0, 23739.0, 23768.0, 23765.0, 23740.0, 23730.0, 23712.0, 23701.0, 23704.0, 23722.0, 23774.0, 23819.0, 23779.0, 23776.0, 23771.0, 23806.0, 23728.0, 23635.0, 23577.0, 23603.0, 23640.0, 23669.0, 23667.0, 23656.0, 23648.0, 23658.0, 23674.0, 23668.0, 23661.0, 23681.0, 23705.0, 23721.0, 23713.0, 23724.0, 23770.0, 23812.0, 23808.0, 23800.0, 23767.0, 23747.0, 23742.0, 23706.0, 23660.0, 23695.0, 23750.0, 23774.0, 23784.0, 23750.0, 23715.0, 23798.0, 23878.0, 23886.0, 23767.0, 23753.0, 23762.0, 23770.0, 23823.0, 23779.0, 23716.0, 23736.0, 23700.0, 23720.0, 23754.0, 23759.0, 23775.0, 23752.0, 23738.0, 23731.0, 23726.0, 23713.0, 23697.0, 23683.0, 23665.0, 23668.0, 23680.0, 23679.0, 23673.0, 23691.0, 23722.0, 23774.0, 23770.0, 23797.0, 23836.0, 23890.0, 23827.0, 23743.0, 23686.0, 23628.0, 23734.0, 23789.0, 23796.0, 23732.0, 23696.0, 23672.0, 23648.0, 23635.0, 23608.0, 23619.0, 23645.0, 23683.0, 23718.0, 23747.0, 23729.0, 23729.0, 23763.0, 23789.0, 23831.0, 23803.0, 23779.0, 23765.0, 23740.0, 23733.0, 23715.0, 23711.0, 23693.0, 23672.0, 23649.0, 23698.0, 23731.0, 23734.0, 23673.0, 23664.0, 23706.0, 23731.0, 23742.0, 23647.0, 23698.0, 23754.0, 23754.0, 23704.0, 23609.0, 23618.0, 23664.0, 23716.0, 23748.0, 23717.0, 23691.0, 23645.0, 23618.0, 23613.0, 23603.0]
    },
    "slices": {}
  }
}