{
  "AcquisitionMatrixPE": 104,
  "AcquisitionNumber": 1,
  "AcquisitionTime": "11:51:25.732500",
  "BandwidthPerPixelPhaseEncode": 17.17,
  "BaseResolution": 104,
  "BodyPartExamined": "BRAIN",
  "CoilString": "HC1-7;NC1_2",
  "ConsistencyInfo": "N4_VE11C_LATEST_20160120",
  "ConversionSoftware": "dcm2niix",
  "ConversionSoftwareVersion": "v1.0.20190902",
  "DerivedVendorReportedEchoSpacing": 0.000560011,
  "DeviceSerialNumber": "167006",
  "DwellTime": 2.1e-06,
  "EchoTime": 0.037,
  "EchoTrainLength": 104,
  "EffectiveEchoSpacing": 0.000560011,
  "FlipAngle": 52,
  "ImageComments": "Unaliased_MB4_PE3_LB",
  "ImageOrientationPatientDICOM": [0.999774, 0.00764921, 0.0198188, 0.00348991, 0.861113, -0.508402],
  "ImageType": [
    "ORIGINAL",
    "PRIMARY",
    "P",
    "MB",
    "ND",
    "MOSAIC"
],
  "ImagingFrequency": 123.259,
  "InPlanePhaseEncodingDirectionDICOM": "COL",
  "InstitutionAddress": "Chemin_Queen-Mary_4565_Montreal_District_CA_H3W_1W5",
  "InstitutionName": "IUGM",
  "InstitutionalDepartmentName": "Department",
  "MRAcquisitionType": "2D",
  "MagneticFieldStrength": 3,
  "Manufacturer": "Siemens",
  "ManufacturersModelName": "Prisma_fit",
  "Modality": "MR",
  "MultibandAccelerationFactor": 4,
  "PartialFourier": 1,
  "PatientPosition": "HFS",
  "PercentPhaseFOV": 100,
  "PhaseEncodingDirection": "j",
  "PhaseEncodingSteps": 104,
  "PhaseResolution": 1,
  "PixelBandwidth": 2290,
  "ProcedureStepDescription": "localizers_retinotopy",
  "ProtocolName": "func_task-bars",
  "PulseSequenceDetails": "%CustomerSeq%_cmrr_mbep2d_bold",
  "ReceiveCoilActiveElements": "HC1-7;NC1,2",
  "ReceiveCoilName": "HeadNeck_64",
  "ReconMatrixPE": 104,
  "RepetitionTime": 1.49,
  "SAR": 0.0437906,
  "ScanOptions": "FS",
  "ScanningSequence": "EP",
  "SequenceName": "epfid2d1_104",
  "SequenceVariant": "SK_SS",
  "SeriesDescription": "func_task-bars",
  "SeriesNumber": 17,
  "ShimSetting": [616, -7195, -8867, 301, 8, -157, -9, -4],
  "SliceThickness": 2,
  "SliceTiming": [0, 0.785, 0.0975, 0.8825, 0.195, 0.98, 0.295, 1.0775, 0.3925, 1.175, 0.49, 1.275, 0.5875, 1.3725, 0.685, 0, 0.785, 0.0975, 0.8825, 0.195, 0.98, 0.295, 1.0775, 0.3925, 1.175, 0.49, 1.275, 0.5875, 1.3725, 0.685, 0, 0.785, 0.0975, 0.8825, 0.195, 0.98, 0.295, 1.0775, 0.3925, 1.175, 0.49, 1.275, 0.5875, 1.3725, 0.685, 0, 0.785, 0.0975, 0.8825, 0.195, 0.98, 0.295, 1.0775, 0.3925, 1.175, 0.49, 1.275, 0.5875, 1.3725, 0.685],
  "SoftwareVersions": "syngo_MR_E11",
  "SpacingBetweenSlices": 2,
  "StationName": "MRC35049",
  "TaskName": "bars",
  "TotalReadoutTime": 0.0576811,
  "TxRefAmp": 257.236,
  "WipMemBlock": "01277556-20d0-4aea-8946-30233e32e5da||Sequence: R016 ve11c/master r/e634e98; Dec 19 2017 11:00:25 by eja",
  "dcmmeta_affine": [
    [-1.9995486736297607, 0.006979816593229771, 0.04191027209162712, 105.31884002685547],
    [-0.015298411250114441, 1.722225308418274, -1.0167133808135986, -50.88824462890625],
    [0.03963769972324371, 1.016804575920105, 1.72178316116333, -93.89627838134766],
    [0.0, 0.0, 0.0, 1.0]
],
  "dcmmeta_reorient_transform": [
    [0.0, -1.0, 0.0, 103.0],
    [1.0, 0.0, 0.0, 0.0],
    [0.0, 0.0, 1.0, 0.0],
    [0.0, 0.0, 0.0, 1.0]
],
  "dcmmeta_shape": [104, 104, 60, 202],
  "dcmmeta_slice_dim": 2,
  "dcmmeta_version": 0.6,
  "global": {
    "const": {
      "AcquisitionMatrix": [104, 0, 0, 104],
      "AngioFlag": "N",
      "BitsAllocated": 16,
      "BitsStored": 16,
      "BodyPartExamined": "BRAIN",
      "Columns": 832,
      "EchoNumbers": 1,
      "EchoTime": 37.0,
      "EchoTrainLength": 104,
      "FlipAngle": 52.0,
      "HighBit": 15,
      "ImageOrientationPatient": [0.99977432595278, 0.00764920565608, 0.01981885007998, 0.00348990827208, 0.86111262759574, -0.508402265077],
      "ImagePositionPatient": [-836.41412297114, -758.95957213319, 366.5233167133],
      "ImageType": [
        "ORIGINAL",
        "PRIMARY",
        "P",
        "MB",
        "ND",
        "MOSAIC"
],
      "ImagedNucleus": "1H",
      "ImagingFrequency": 123.259156,
      "InPlanePhaseEncodingDirection": "COL",
      "LargestImagePixelValue": 4095,
      "MRAcquisitionType": "2D",
      "MagneticFieldStrength": 3.0,
      "Manufacturer": "SIEMENS",
      "ManufacturerModelName": "Prisma_fit",
      "Modality": "MR",
      "NumberOfAverages": 1.0,
      "NumberOfPhaseEncodingSteps": 104,
      "PercentPhaseFieldOfView": 100.0,
      "PercentSampling": 100.0,
      "PerformedProcedureStepStartTime": "113404.994000",
      "PhotometricInterpretation": "MONOCHROME2",
      "PixelBandwidth": 2290.0,
      "PixelRepresentation": 0,
      "PixelSpacing": [2.0, 2.0],
      "ProtocolName": "func_task-bars",
      "RepetitionTime": 1490.0,
      "RescaleIntercept": -4096.0,
      "RescaleSlope": 2.0,
      "RescaleType": "US",
      "Rows": 832,
      "SAR": 0.04379064068908,
      "SamplesPerPixel": 1,
      "ScanOptions": "FS",
      "ScanningSequence": "EP",
      "SequenceName": "epfid2d1_104",
      "SequenceVariant": [
        "SK",
        "SS"
],
      "SeriesDescription": "func_task-bars",
      "SeriesNumber": 17,
      "SeriesTime": "115243.411000",
      "SliceLocation": -52.758165346275,
      "SliceThickness": 2.0,
      "SmallestImagePixelValue": 0,
      "SoftwareVersions": "syngo MR E11",
      "SpacingBetweenSlices": 1.9999999929459,
      "SpecificCharacterSet": "ISO_IR 100",
      "StudyID": "1",
      "StudyTime": "113404.930000",
      "TransmitCoilName": "Body",
      "VariableFlipAngleFlag": "N",
      "WindowCenterWidthExplanation": "Algo1",
      "dBdt": 0.0},
    "slices": {}
  },
  "time": {
    "samples": {
      "AcquisitionNumber": [1, 2, 3, 4, 5, 6, 7, 8, 9, 10, 11, 12, 13, 14, 15, 16, 17, 18, 19, 20, 21, 22, 23, 24, 25, 26, 27, 28, 29, 30, 31, 32, 33, 34, 35, 36, 37, 38, 39, 40, 41, 42, 43, 44, 45, 46, 47, 48, 49, 50, 51, 52, 53, 54, 55, 56, 57, 58, 59, 60, 61, 62, 63, 64, 65, 66, 67, 68, 69, 70, 71, 72, 73, 74, 75, 76, 77, 78, 79, 80, 81, 82, 83, 84, 85, 86, 87, 88, 89, 90, 91, 92, 93, 94, 95, 96, 97, 98, 99, 100, 101, 102, 103, 104, 105, 106, 107, 108, 109, 110, 111, 112, 113, 114, 115, 116, 117, 118, 119, 120, 121, 122, 123, 124, 125, 126, 127, 128, 129, 130, 131, 132, 133, 134, 135, 136, 137, 138, 139, 140, 141, 142, 143, 144, 145, 146, 147, 148, 149, 150, 151, 152, 153, 154, 155, 156, 157, 158, 159, 160, 161, 162, 163, 164, 165, 166, 167, 168, 169, 170, 171, 172, 173, 174, 175, 176, 177, 178, 179, 180, 181, 182, 183, 184, 185, 186, 187, 188, 189, 190, 191, 192, 193, 194, 195, 196, 197, 198, 199, 200, 201, 202],
      "AcquisitionTime": ["115125.732500", "115127.222500", "115128.712500", "115130.202500", "115131.692500", "115133.182500", "115134.672500", "115136.162500", "115137.652500", "115139.142500", "115140.632500", "115142.122500", "115143.612500", "115145.102500", "115146.592500", "115148.082500", "115149.572500", "115151.062500", "115152.552500", "115154.042500", "115155.532500", "115157.022500", "115158.512500", "115200.002500", "115201.492500", "115202.982500", "115204.472500", "115205.962500", "115207.452500", "115208.942500", "115210.432500", "115211.922500", "115213.412500", "115214.902500", "115216.392500", "115217.882500", "115219.372500", "115220.862500", "115222.352500", "115223.842500", "115225.332500", "115226.822500", "115228.312500", "115229.802500", "115231.292500", "115232.782500", "115234.272500", "115235.762500", "115237.252500", "115238.742500", "115240.232500", "115241.722500", "115243.212500", "115244.702500", "115246.192500", "115247.682500", "115249.172500", "115250.662500", "115252.152500", "115253.642500", "115255.132500", "115256.622500", "115258.112500", "115259.602500", "115301.092500", "115302.582500", "115304.072500", "115305.562500", "115307.052500", "115308.542500", "115310.032500", "115311.522500", "115313.012500", "115314.502500", "115315.992500", "115317.482500", "115318.972500", "115320.462500", "115321.952500", "115323.442500", "115324.932500", "115326.422500", "115327.912500", "115329.402500", "115330.892500", "115332.382500", "115333.872500", "115335.362500", "115336.852500", "115338.342500", "115339.832500", "115341.322500", "115342.812500", "115344.302500", "115345.792500", "115347.282500", "115348.772500", "115350.262500", "115351.752500", "115353.242500", "115354.732500", "115356.222500", "115357.712500", "115359.202500", "115400.692500", "115402.182500", "115403.672500", "115405.162500", "115406.652500", "115408.142500", "115409.632500", "115411.122500", "115412.612500", "115414.102500", "115415.592500", "115417.082500", "115418.572500", "115420.062500", "115421.552500", "115423.042500", "115424.532500", "115426.022500", "115427.512500", "115429.002500", "115430.492500", "115431.982500", "115433.472500", "115434.962500", "115436.452500", "115437.942500", "115439.432500", "115440.922500", "115442.412500", "115443.902500", "115445.392500", "115446.882500", "115448.372500", "115449.862500", "115451.352500", "115452.842500", "115454.332500", "115455.822500", "115457.312500", "115458.802500", "115500.292500", "115501.782500", "115503.272500", "115504.762500", "115506.252500", "115507.742500", "115509.232500", "115510.722500", "115512.212500", "115513.702500", "115515.192500", "115516.682500", "115518.172500", "115519.662500", "115521.152500", "115522.642500", "115524.132500", "115525.622500", "115527.112500", "115528.602500", "115530.092500", "115531.582500", "115533.072500", "115534.562500", "115536.052500", "115537.542500", "115539.032500", "115540.522500", "115542.012500", "115543.502500", "115544.992500", "115546.482500", "115547.972500", "115549.462500", "115550.952500", "115552.442500", "115553.932500", "115555.422500", "115556.912500", "115558.402500", "115559.892500", "115601.382500", "115602.872500", "115604.362500", "115605.852500", "115607.342500", "115608.832500", "115610.322500", "115611.812500", "115613.302500", "115614.792500", "115616.282500", "115617.772500", "115619.262500", "115620.752500", "115622.242500", "115623.732500", "115625.222500"],
      "ContentTime": ["115243.413000", "115243.416000", "115243.418000", "115243.420000", "115243.423000", "115243.425000", "115243.428000", "115243.430000", "115243.433000", "115243.435000", "115243.438000", "115243.440000", "115243.443000", "115243.445000", "115243.448000", "115243.450000", "115243.453000", "115243.456000", "115243.458000", "115243.461000", "115243.463000", "115303.370000", "115303.373000", "115303.380000", "115303.382000", "115303.385000", "115303.387000", "115303.390000", "115303.392000", "115303.395000", "115303.397000", "115303.400000", "115303.402000", "115303.405000", "115303.407000", "115303.410000", "115303.412000", "115303.414000", "115303.417000", "115303.419000", "115303.422000", "115323.358000", "115323.360000", "115323.363000", "115323.365000", "115323.368000", "115323.370000", "115323.373000", "115323.375000", "115323.378000", "115323.380000", "115323.383000", "115323.385000", "115323.388000", "115323.397000", "115323.400000", "115323.402000", "115323.405000", "115323.407000", "115323.410000", "115323.412000", "115323.415000", "115343.340000", "115343.343000", "115343.345000", "115343.348000", "115343.350000", "115343.353000", "115343.355000", "115343.357000", "115343.360000", "115343.363000", "115343.365000", "115343.367000", "115343.370000", "115343.372000", "115343.375000", "115343.377000", "115343.380000", "115343.382000", "115343.385000", "115343.387000", "115403.960000", "115403.963000", "115403.965000", "115403.968000", "115403.970000", "115403.973000", "115403.975000", "115403.978000", "115403.980000", "115403.983000", "115403.985000", "115403.988000", "115403.991000", "115403.993000", "115403.996000", "115403.998000", "115404.002000", "115404.004000", "115404.007000", "115404.009000", "115443.388000", "115443.390000", "115443.393000", "115443.395000", "115443.398000", "115443.401000", "115443.403000", "115443.405000", "115443.408000", "115443.411000", "115443.413000", "115443.415000", "115443.418000", "115443.423000", "115443.426000", "115443.428000", "115443.430000", "115443.433000", "115443.436000", "115443.438000", "115443.440000", "115443.443000", "115443.445000", "115443.448000", "115443.450000", "115443.453000", "115443.455000", "115443.458000", "115443.460000", "115443.463000", "115523.390000", "115523.392000", "115523.395000", "115523.397000", "115523.400000", "115523.402000", "115523.405000", "115523.407000", "115523.410000", "115523.412000", "115523.415000", "115523.417000", "115523.420000", "115523.422000", "115523.425000", "115523.428000", "115523.430000", "115523.433000", "115523.435000", "115523.438000", "115523.441000", "115523.443000", "115523.446000", "115523.448000", "115523.451000", "115523.453000", "115603.381000", "115603.384000", "115603.387000", "115603.389000", "115603.392000", "115603.394000", "115603.397000", "115603.399000", "115603.402000", "115603.404000", "115603.407000", "115603.409000", "115603.412000", "115603.414000", "115603.417000", "115603.419000", "115603.422000", "115603.424000", "115603.427000", "115603.429000", "115603.432000", "115603.434000", "115603.437000", "115603.439000", "115603.441000", "115603.444000", "115603.446000", "115627.481000", "115627.484000", "115627.486000", "115627.489000", "115627.491000", "115627.493000", "115627.496000", "115627.499000", "115627.501000", "115627.503000", "115627.506000", "115627.508000", "115627.511000", "115627.513000", "115627.516000", "115627.518000", "115627.521000"],
      "InstanceCreationTime": ["115243.413000", "115243.416000", "115243.418000", "115243.420000", "115243.423000", "115243.425000", "115243.428000", "115243.430000", "115243.433000", "115243.435000", "115243.438000", "115243.440000", "115243.443000", "115243.445000", "115243.448000", "115243.450000", "115243.453000", "115243.456000", "115243.458000", "115243.461000", "115243.463000", "115303.370000", "115303.373000", "115303.380000", "115303.382000", "115303.385000", "115303.387000", "115303.390000", "115303.392000", "115303.395000", "115303.397000", "115303.400000", "115303.402000", "115303.405000", "115303.407000", "115303.410000", "115303.412000", "115303.414000", "115303.417000", "115303.419000", "115303.422000", "115323.358000", "115323.360000", "115323.363000", "115323.365000", "115323.368000", "115323.370000", "115323.373000", "115323.375000", "115323.378000", "115323.380000", "115323.383000", "115323.385000", "115323.388000", "115323.397000", "115323.400000", "115323.402000", "115323.405000", "115323.407000", "115323.410000", "115323.412000", "115323.415000", "115343.340000", "115343.343000", "115343.345000", "115343.348000", "115343.350000", "115343.353000", "115343.355000", "115343.357000", "115343.360000", "115343.363000", "115343.365000", "115343.367000", "115343.370000", "115343.372000", "115343.375000", "115343.377000", "115343.380000", "115343.382000", "115343.385000", "115343.387000", "115403.960000", "115403.963000", "115403.965000", "115403.968000", "115403.970000", "115403.973000", "115403.975000", "115403.978000", "115403.980000", "115403.983000", "115403.985000", "115403.988000", "115403.991000", "115403.993000", "115403.996000", "115403.998000", "115404.002000", "115404.004000", "115404.007000", "115404.009000", "115443.388000", "115443.390000", "115443.393000", "115443.395000", "115443.398000", "115443.401000", "115443.403000", "115443.405000", "115443.408000", "115443.411000", "115443.413000", "115443.415000", "115443.418000", "115443.423000", "115443.426000", "115443.428000", "115443.430000", "115443.433000", "115443.436000", "115443.438000", "115443.440000", "115443.443000", "115443.445000", "115443.448000", "115443.450000", "115443.453000", "115443.455000", "115443.458000", "115443.460000", "115443.463000", "115523.390000", "115523.392000", "115523.395000", "115523.397000", "115523.400000", "115523.402000", "115523.405000", "115523.407000", "115523.410000", "115523.412000", "115523.415000", "115523.417000", "115523.420000", "115523.422000", "115523.425000", "115523.428000", "115523.430000", "115523.433000", "115523.435000", "115523.438000", "115523.441000", "115523.443000", "115523.446000", "115523.448000", "115523.451000", "115523.453000", "115603.381000", "115603.384000", "115603.387000", "115603.389000", "115603.392000", "115603.394000", "115603.397000", "115603.399000", "115603.402000", "115603.404000", "115603.407000", "115603.409000", "115603.412000", "115603.414000", "115603.417000", "115603.419000", "115603.422000", "115603.424000", "115603.427000", "115603.429000", "115603.432000", "115603.434000", "115603.437000", "115603.439000", "115603.441000", "115603.444000", "115603.446000", "115627.481000", "115627.484000", "115627.486000", "115627.489000", "115627.491000", "115627.493000", "115627.496000", "115627.499000", "115627.501000", "115627.503000", "115627.506000", "115627.508000", "115627.511000", "115627.513000", "115627.516000", "115627.518000", "115627.521000"],
      "InstanceNumber": [1, 2, 3, 4, 5, 6, 7, 8, 9, 10, 11, 12, 13, 14, 15, 16, 17, 18, 19, 20, 21, 22, 23, 24, 25, 26, 27, 28, 29, 30, 31, 32, 33, 34, 35, 36, 37, 38, 39, 40, 41, 42, 43, 44, 45, 46, 47, 48, 49, 50, 51, 52, 53, 54, 55, 56, 57, 58, 59, 60, 61, 62, 63, 64, 65, 66, 67, 68, 69, 70, 71, 72, 73, 74, 75, 76, 77, 78, 79, 80, 81, 82, 83, 84, 85, 86, 87, 88, 89, 90, 91, 92, 93, 94, 95, 96, 97, 98, 99, 100, 101, 102, 103, 104, 105, 106, 107, 108, 109, 110, 111, 112, 113, 114, 115, 116, 117, 118, 119, 120, 121, 122, 123, 124, 125, 126, 127, 128, 129, 130, 131, 132, 133, 134, 135, 136, 137, 138, 139, 140, 141, 142, 143, 144, 145, 146, 147, 148, 149, 150, 151, 152, 153, 154, 155, 156, 157, 158, 159, 160, 161, 162, 163, 164, 165, 166, 167, 168, 169, 170, 171, 172, 173, 174, 175, 176, 177, 178, 179, 180, 181, 182, 183, 184, 185, 186, 187, 188, 189, 190, 191, 192, 193, 194, 195, 196, 197, 198, 199, 200, 201, 202],
      "WindowCenter": [4854.0, 4832.0, 4830.0, 4854.0, 4854.0, 4856.0, 4856.0, 4836.0, 4832.0, 4858.0, 4860.0, 4860.0, 4862.0, 4834.0, 4834.0, 4830.0, 4836.0, 4830.0, 4858.0, 4836.0, 4856.0, 4830.0, 4834.0, 4834.0, 4842.0, 4834.0, 4856.0, 4832.0, 4830.0, 4832.0, 4832.0, 4830.0, 4830.0, 4830.0, 4830.0, 4832.0, 4854.0, 4854.0, 4832.0, 4832.0, 4832.0, 4836.0, 4834.0, 4832.0, 4832.0, 4854.0, 4832.0, 4834.0, 4834.0, 4832.0, 4834.0, 4830.0, 4836.0, 4858.0, 4832.0, 4830.0, 4832.0, 4830.0, 4834.0, 4830.0, 4830.0, 4830.0, 4834.0, 4832.0, 4832.0, 4830.0, 4832.0, 4856.0, 4832.0, 4830.0, 4832.0, 4832.0, 4824.0, 4822.0, 4822.0, 4828.0, 4826.0, 4824.0, 4824.0, 4824.0, 4826.0, 4832.0, 4830.0, 4828.0, 4828.0, 4854.0, 4834.0, 4832.0, 4836.0, 4832.0, 4858.0, 4832.0, 4828.0, 4858.0, 4860.0, 4860.0, 4834.0, 4834.0, 4862.0, 4858.0, 4832.0, 4830.0, 4858.0, 4858.0, 4832.0, 4860.0, 4836.0, 4834.0, 4856.0, 4832.0, 4832.0, 4832.0, 4858.0, 4834.0, 4856.0, 4860.0, 4834.0, 4832.0, 4828.0, 4860.0, 4836.0, 4860.0, 4860.0, 4832.0, 4838.0, 4860.0, 4834.0, 4862.0, 4836.0, 4832.0, 4858.0, 4836.0, 4858.0, 4860.0, 4838.0, 4836.0, 4836.0, 4832.0, 4858.0, 4836.0, 4834.0, 4860.0, 4834.0, 4858.0, 4836.0, 4834.0, 4838.0, 4858.0, 4832.0, 4830.0, 4828.0, 4858.0, 4834.0, 4834.0, 4858.0, 4836.0, 4832.0, 4856.0, 4832.0, 4830.0, 4836.0, 4854.0, 4856.0, 4836.0, 4836.0, 4836.0, 4856.0, 4858.0, 4832.0, 4836.0, 4858.0, 4834.0, 4836.0, 4836.0, 4834.0, 4860.0, 4836.0, 4860.0, 4860.0, 4856.0, 4858.0, 4858.0, 4836.0, 4830.0, 4860.0, 4834.0, 4856.0, 4834.0, 4860.0, 4858.0, 4858.0, 4856.0, 4832.0, 4858.0, 4834.0, 4832.0, 4858.0, 4864.0, 4858.0, 4856.0, 4830.0, 4858.0],
      "WindowWidth": [18628.0, 18600.0, 18596.0, 18628.0, 18632.0, 18628.0, 18634.0, 18592.0, 18584.0, 18628.0, 18616.0, 18624.0, 18624.0, 18608.0, 18596.0, 18596.0, 18598.0, 18604.0, 18626.0, 18594.0, 18632.0, 18578.0, 18596.0, 18584.0, 18586.0, 18600.0, 18634.0, 18598.0, 18604.0, 18602.0, 18602.0, 18596.0, 18582.0, 18594.0, 18582.0, 18596.0, 18632.0, 18628.0, 18604.0, 18598.0, 18602.0, 18596.0, 18598.0, 18588.0, 18596.0, 18632.0, 18600.0, 18606.0, 18602.0, 18602.0, 18596.0, 18600.0, 18594.0, 18624.0, 18606.0, 18598.0, 18602.0, 18600.0, 18598.0, 18600.0, 18592.0, 18594.0, 18602.0, 18606.0, 18602.0, 18604.0, 18582.0, 18586.0, 18558.0, 18602.0, 18600.0, 18598.0, 18606.0, 18598.0, 18598.0, 18604.0, 18568.0, 18570.0, 18568.0, 18574.0, 18590.0, 18598.0, 18600.0, 18606.0, 18610.0, 18628.0, 18564.0, 18568.0, 18600.0, 18596.0, 18624.0, 18594.0, 18602.0, 18622.0, 18620.0, 18624.0, 18600.0, 18600.0, 18622.0, 18620.0, 18606.0, 18604.0, 18618.0, 18620.0, 18600.0, 18628.0, 18592.0, 18602.0, 18630.0, 18594.0, 18600.0, 18600.0, 18626.0, 18592.0, 18624.0, 18622.0, 18594.0, 18596.0, 18596.0, 18622.0, 18604.0, 18624.0, 18622.0, 18602.0, 18588.0, 18622.0, 18602.0, 18626.0, 18602.0, 18606.0, 18628.0, 18596.0, 18628.0, 18624.0, 18602.0, 18592.0, 18596.0, 18602.0, 18626.0, 18596.0, 18604.0, 18626.0, 18600.0, 18626.0, 18596.0, 18604.0, 18594.0, 18626.0, 18606.0, 18596.0, 18602.0, 18626.0, 18574.0, 18590.0, 18614.0, 18592.0, 18598.0, 18628.0, 18608.0, 18596.0, 18598.0, 18632.0, 18626.0, 18596.0, 18596.0, 18584.0, 18630.0, 18622.0, 18604.0, 18594.0, 18620.0, 18604.0, 18598.0, 18594.0, 18604.0, 18618.0, 18598.0, 18632.0, 18626.0, 18634.0, 18616.0, 18602.0, 18592.0, 18600.0, 18628.0, 18594.0, 18628.0, 18606.0, 18624.0, 18630.0, 18626.0, 18606.0, 18586.0, 18618.0, 18594.0, 18600.0, 18630.0, 18616.0, 18624.0, 18634.0, 18596.0, 18626.0]
    },
    "slices": {}
  }
}