{
  "AcquisitionMatrixPE": 104,
  "AcquisitionNumber": 1,
  "AcquisitionTime": "11:51:25.732500",
  "BandwidthPerPixelPhaseEncode": 17.17,
  "BaseResolution": 104,
  "BodyPartExamined": "BRAIN",
  "CoilString": "HC1-7;NC1_2",
  "ConsistencyInfo": "N4_VE11C_LATEST_20160120",
  "ConversionSoftware": "dcm2niix",
  "ConversionSoftwareVersion": "v1.0.20190902",
  "DerivedVendorReportedEchoSpacing": 0.000560011,
  "DeviceSerialNumber": "167006",
  "DwellTime": 2.1e-06,
  "EchoTime": 0.037,
  "EchoTrainLength": 104,
  "EffectiveEchoSpacing": 0.000560011,
  "FlipAngle": 52,
  "ImageComments": "Unaliased_MB4_PE3_LB",
  "ImageOrientationPatientDICOM": [0.999774, 0.00764921, 0.0198188, 0.00348991, 0.861113, -0.508402],
  "ImageType": [
    "ORIGINAL",
    "PRIMARY",
    "M",
    "MB",
    "ND",
    "MOSAIC"
],
  "ImagingFrequency": 123.259,
  "InPlanePhaseEncodingDirectionDICOM": "COL",
  "InstitutionAddress": "Chemin_Queen-Mary_4565_Montreal_District_CA_H3W_1W5",
  "InstitutionName": "IUGM",
  "InstitutionalDepartmentName": "Department",
  "MRAcquisitionType": "2D",
  "MagneticFieldStrength": 3,
  "Manufacturer": "Siemens",
  "ManufacturersModelName": "Prisma_fit",
  "Modality": "MR",
  "MultibandAccelerationFactor": 4,
  "PartialFourier": 1,
  "PatientPosition": "HFS",
  "PercentPhaseFOV": 100,
  "PhaseEncodingDirection": "j",
  "PhaseEncodingSteps": 104,
  "PhaseResolution": 1,
  "PixelBandwidth": 2290,
  "ProcedureStepDescription": "localizers_retinotopy",
  "ProtocolName": "func_task-bars",
  "PulseSequenceDetails": "%CustomerSeq%_cmrr_mbep2d_bold",
  "ReceiveCoilActiveElements": "HC1-7;NC1,2",
  "ReceiveCoilName": "HeadNeck_64",
  "ReconMatrixPE": 104,
  "RepetitionTime": 1.49,
  "SAR": 0.0437906,
  "ScanOptions": "FS",
  "ScanningSequence": "EP",
  "SequenceName": "epfid2d1_104",
  "SequenceVariant": "SK_SS",
  "SeriesDescription": "func_task-bars",
  "SeriesNumber": 16,
  "ShimSetting": [616, -7195, -8867, 301, 8, -157, -9, -4],
  "SliceThickness": 2,
  "SliceTiming": [0, 0.785, 0.0975, 0.8825, 0.195, 0.98, 0.295, 1.0775, 0.3925, 1.175, 0.49, 1.275, 0.5875, 1.3725, 0.685, 0, 0.785, 0.0975, 0.8825, 0.195, 0.98, 0.295, 1.0775, 0.3925, 1.175, 0.49, 1.275, 0.5875, 1.3725, 0.685, 0, 0.785, 0.0975, 0.8825, 0.195, 0.98, 0.295, 1.0775, 0.3925, 1.175, 0.49, 1.275, 0.5875, 1.3725, 0.685, 0, 0.785, 0.0975, 0.8825, 0.195, 0.98, 0.295, 1.0775, 0.3925, 1.175, 0.49, 1.275, 0.5875, 1.3725, 0.685],
  "SoftwareVersions": "syngo_MR_E11",
  "SpacingBetweenSlices": 2,
  "StationName": "MRC35049",
  "TaskName": "bars",
  "TotalReadoutTime": 0.0576811,
  "TxRefAmp": 257.236,
  "WipMemBlock": "01277556-20d0-4aea-8946-30233e32e5da||Sequence: R016 ve11c/master r/e634e98; Dec 19 2017 11:00:25 by eja",
  "dcmmeta_affine": [
    [-1.9995486736297607, 0.006979816593229771, 0.04191027209162712, 105.31884002685547],
    [-0.015298411250114441, 1.722225308418274, -1.0167133808135986, -50.88824462890625],
    [0.03963769972324371, 1.016804575920105, 1.72178316116333, -93.89627838134766],
    [0.0, 0.0, 0.0, 1.0]
],
  "dcmmeta_reorient_transform": [
    [0.0, -1.0, 0.0, 103.0],
    [1.0, 0.0, 0.0, 0.0],
    [0.0, 0.0, 1.0, 0.0],
    [0.0, 0.0, 0.0, 1.0]
],
  "dcmmeta_shape": [104, 104, 60, 202],
  "dcmmeta_slice_dim": 2,
  "dcmmeta_version": 0.6,
  "global": {
    "const": {
      "AcquisitionMatrix": [104, 0, 0, 104],
      "AngioFlag": "N",
      "BitsAllocated": 16,
      "BitsStored": 16,
      "BodyPartExamined": "BRAIN",
      "Columns": 832,
      "EchoNumbers": 1,
      "EchoTime": 37.0,
      "EchoTrainLength": 104,
      "FlipAngle": 52.0,
      "HighBit": 15,
      "ImageOrientationPatient": [0.99977432595278, 0.00764920565608, 0.01981885007998, 0.00348990827208, 0.86111262759574, -0.508402265077],
      "ImagePositionPatient": [-836.41412297114, -758.95957213319, 366.5233167133],
      "ImageType": [
        "ORIGINAL",
        "PRIMARY",
        "M",
        "MB",
        "ND",
        "MOSAIC"
],
      "ImagedNucleus": "1H",
      "ImagingFrequency": 123.259156,
      "InPlanePhaseEncodingDirection": "COL",
      "MRAcquisitionType": "2D",
      "MagneticFieldStrength": 3.0,
      "Manufacturer": "SIEMENS",
      "ManufacturerModelName": "Prisma_fit",
      "Modality": "MR",
      "NumberOfAverages": 1.0,
      "NumberOfPhaseEncodingSteps": 104,
      "PercentPhaseFieldOfView": 100.0,
      "PercentSampling": 100.0,
      "PerformedProcedureStepStartTime": "113404.994000",
      "PhotometricInterpretation": "MONOCHROME2",
      "PixelBandwidth": 2290.0,
      "PixelRepresentation": 0,
      "PixelSpacing": [2.0, 2.0],
      "ProtocolName": "func_task-bars",
      "RepetitionTime": 1490.0,
      "Rows": 832,
      "SAR": 0.04379064068908,
      "SamplesPerPixel": 1,
      "ScanOptions": "FS",
      "ScanningSequence": "EP",
      "SequenceName": "epfid2d1_104",
      "SequenceVariant": [
        "SK",
        "SS"
],
      "SeriesDescription": "func_task-bars",
      "SeriesNumber": 16,
      "SeriesTime": "115243.283000",
      "SliceLocation": -52.758165346275,
      "SliceThickness": 2.0,
      "SmallestImagePixelValue": 0,
      "SoftwareVersions": "syngo MR E11",
      "SpacingBetweenSlices": 1.9999999929459,
      "SpecificCharacterSet": "ISO_IR 100",
      "StudyID": "1",
      "StudyTime": "113404.930000",
      "TransmitCoilName": "Body",
      "VariableFlipAngleFlag": "N",
      "WindowCenterWidthExplanation": "Algo1",
      "dBdt": 0.0},
    "slices": {}
  },
  "time": {
    "samples": {
      "AcquisitionNumber": [1, 2, 3, 4, 5, 6, 7, 8, 9, 10, 11, 12, 13, 14, 15, 16, 17, 18, 19, 20, 21, 22, 23, 24, 25, 26, 27, 28, 29, 30, 31, 32, 33, 34, 35, 36, 37, 38, 39, 40, 41, 42, 43, 44, 45, 46, 47, 48, 49, 50, 51, 52, 53, 54, 55, 56, 57, 58, 59, 60, 61, 62, 63, 64, 65, 66, 67, 68, 69, 70, 71, 72, 73, 74, 75, 76, 77, 78, 79, 80, 81, 82, 83, 84, 85, 86, 87, 88, 89, 90, 91, 92, 93, 94, 95, 96, 97, 98, 99, 100, 101, 102, 103, 104, 105, 106, 107, 108, 109, 110, 111, 112, 113, 114, 115, 116, 117, 118, 119, 120, 121, 122, 123, 124, 125, 126, 127, 128, 129, 130, 131, 132, 133, 134, 135, 136, 137, 138, 139, 140, 141, 142, 143, 144, 145, 146, 147, 148, 149, 150, 151, 152, 153, 154, 155, 156, 157, 158, 159, 160, 161, 162, 163, 164, 165, 166, 167, 168, 169, 170, 171, 172, 173, 174, 175, 176, 177, 178, 179, 180, 181, 182, 183, 184, 185, 186, 187, 188, 189, 190, 191, 192, 193, 194, 195, 196, 197, 198, 199, 200, 201, 202],
      "AcquisitionTime": ["115125.732500", "115127.222500", "115128.712500", "115130.202500", "115131.692500", "115133.182500", "115134.672500", "115136.162500", "115137.652500", "115139.142500", "115140.632500", "115142.122500", "115143.612500", "115145.102500", "115146.592500", "115148.082500", "115149.572500", "115151.062500", "115152.552500", "115154.042500", "115155.532500", "115157.022500", "115158.512500", "115200.002500", "115201.492500", "115202.982500", "115204.472500", "115205.962500", "115207.452500", "115208.942500", "115210.432500", "115211.922500", "115213.412500", "115214.902500", "115216.392500", "115217.882500", "115219.372500", "115220.862500", "115222.352500", "115223.842500", "115225.332500", "115226.822500", "115228.312500", "115229.802500", "115231.292500", "115232.782500", "115234.272500", "115235.762500", "115237.252500", "115238.742500", "115240.232500", "115241.722500", "115243.212500", "115244.702500", "115246.192500", "115247.682500", "115249.172500", "115250.662500", "115252.152500", "115253.642500", "115255.132500", "115256.622500", "115258.112500", "115259.602500", "115301.092500", "115302.582500", "115304.072500", "115305.562500", "115307.052500", "115308.542500", "115310.032500", "115311.522500", "115313.012500", "115314.502500", "115315.992500", "115317.482500", "115318.972500", "115320.462500", "115321.952500", "115323.442500", "115324.932500", "115326.422500", "115327.912500", "115329.402500", "115330.892500", "115332.382500", "115333.872500", "115335.362500", "115336.852500", "115338.342500", "115339.832500", "115341.322500", "115342.812500", "115344.302500", "115345.792500", "115347.282500", "115348.772500", "115350.262500", "115351.752500", "115353.242500", "115354.732500", "115356.222500", "115357.712500", "115359.202500", "115400.692500", "115402.182500", "115403.672500", "115405.162500", "115406.652500", "115408.142500", "115409.632500", "115411.122500", "115412.612500", "115414.102500", "115415.592500", "115417.082500", "115418.572500", "115420.062500", "115421.552500", "115423.042500", "115424.532500", "115426.022500", "115427.512500", "115429.002500", "115430.492500", "115431.982500", "115433.472500", "115434.962500", "115436.452500", "115437.942500", "115439.432500", "115440.922500", "115442.412500", "115443.902500", "115445.392500", "115446.882500", "115448.372500", "115449.862500", "115451.352500", "115452.842500", "115454.332500", "115455.822500", "115457.312500", "115458.802500", "115500.292500", "115501.782500", "115503.272500", "115504.762500", "115506.252500", "115507.742500", "115509.232500", "115510.722500", "115512.212500", "115513.702500", "115515.192500", "115516.682500", "115518.172500", "115519.662500", "115521.152500", "115522.642500", "115524.132500", "115525.622500", "115527.112500", "115528.602500", "115530.092500", "115531.582500", "115533.072500", "115534.562500", "115536.052500", "115537.542500", "115539.032500", "115540.522500", "115542.012500", "115543.502500", "115544.992500", "115546.482500", "115547.972500", "115549.462500", "115550.952500", "115552.442500", "115553.932500", "115555.422500", "115556.912500", "115558.402500", "115559.892500", "115601.382500", "115602.872500", "115604.362500", "115605.852500", "115607.342500", "115608.832500", "115610.322500", "115611.812500", "115613.302500", "115614.792500", "115616.282500", "115617.772500", "115619.262500", "115620.752500", "115622.242500", "115623.732500", "115625.222500"],
      "ContentTime": ["115243.286000", "115243.290000", "115243.293000", "115243.305000", "115243.308000", "115243.311000", "115243.314000", "115243.318000", "115243.321000", "115243.324000", "115243.327000", "115243.330000", "115243.334000", "115243.337000", "115243.340000", "115243.343000", "115243.347000", "115243.350000", "115243.353000", "115243.356000", "115243.359000", "115303.236000", "115303.240000", "115303.243000", "115303.247000", "115303.250000", "115303.254000", "115303.257000", "115303.261000", "115303.275000", "115303.278000", "115303.281000", "115303.285000", "115303.288000", "115303.291000", "115303.294000", "115303.297000", "115303.301000", "115303.304000", "115303.307000", "115303.318000", "115323.236000", "115323.239000", "115323.243000", "115323.246000", "115323.249000", "115323.253000", "115323.256000", "115323.259000", "115323.262000", "115323.265000", "115323.269000", "115323.272000", "115323.285000", "115323.289000", "115323.292000", "115323.295000", "115323.298000", "115323.301000", "115323.305000", "115323.308000", "115323.311000", "115343.236000", "115343.239000", "115343.243000", "115343.246000", "115343.250000", "115343.253000", "115343.256000", "115343.259000", "115343.263000", "115343.266000", "115343.269000", "115343.272000", "115343.277000", "115343.280000", "115343.284000", "115343.287000", "115343.290000", "115343.294000", "115343.297000", "115343.300000", "115403.236000", "115403.240000", "115403.243000", "115403.246000", "115403.249000", "115403.253000", "115403.256000", "115403.259000", "115403.263000", "115403.266000", "115403.269000", "115403.272000", "115403.275000", "115403.279000", "115403.282000", "115403.285000", "115403.288000", "115403.292000", "115403.295000", "115403.298000", "115443.236000", "115443.240000", "115443.243000", "115443.247000", "115443.250000", "115443.253000", "115443.256000", "115443.260000", "115443.263000", "115443.266000", "115443.270000", "115443.273000", "115443.276000", "115443.279000", "115443.283000", "115443.286000", "115443.289000", "115443.293000", "115443.296000", "115443.299000", "115443.302000", "115443.305000", "115443.308000", "115443.312000", "115443.315000", "115443.318000", "115443.321000", "115443.325000", "115443.328000", "115443.331000", "115523.236000", "115523.240000", "115523.243000", "115523.247000", "115523.265000", "115523.268000", "115523.271000", "115523.275000", "115523.278000", "115523.281000", "115523.284000", "115523.288000", "115523.291000", "115523.294000", "115523.298000", "115523.301000", "115523.304000", "115523.307000", "115523.311000", "115523.314000", "115523.317000", "115523.321000", "115523.324000", "115523.327000", "115523.330000", "115523.334000", "115603.236000", "115603.240000", "115603.243000", "115603.247000", "115603.250000", "115603.253000", "115603.257000", "115603.260000", "115603.263000", "115603.266000", "115603.270000", "115603.273000", "115603.276000", "115603.279000", "115603.283000", "115603.286000", "115603.289000", "115603.292000", "115603.295000", "115603.299000", "115603.302000", "115603.305000", "115603.308000", "115603.312000", "115603.315000", "115603.318000", "115603.321000", "115627.359000", "115627.362000", "115627.365000", "115627.378000", "115627.381000", "115627.384000", "115627.387000", "115627.391000", "115627.394000", "115627.397000", "115627.401000", "115627.404000", "115627.407000", "115627.410000", "115627.414000", "115627.417000", "115627.420000"],
      "InstanceCreationTime": ["115243.286000", "115243.290000", "115243.293000", "115243.305000", "115243.308000", "115243.311000", "115243.314000", "115243.318000", "115243.321000", "115243.324000", "115243.327000", "115243.330000", "115243.334000", "115243.337000", "115243.340000", "115243.343000", "115243.347000", "115243.350000", "115243.353000", "115243.356000", "115243.359000", "115303.236000", "115303.240000", "115303.243000", "115303.247000", "115303.250000", "115303.254000", "115303.257000", "115303.261000", "115303.275000", "115303.278000", "115303.281000", "115303.285000", "115303.288000", "115303.291000", "115303.294000", "115303.297000", "115303.301000", "115303.304000", "115303.307000", "115303.318000", "115323.236000", "115323.239000", "115323.243000", "115323.246000", "115323.249000", "115323.253000", "115323.256000", "115323.259000", "115323.262000", "115323.265000", "115323.269000", "115323.272000", "115323.285000", "115323.289000", "115323.292000", "115323.295000", "115323.298000", "115323.301000", "115323.305000", "115323.308000", "115323.311000", "115343.236000", "115343.239000", "115343.243000", "115343.246000", "115343.250000", "115343.253000", "115343.256000", "115343.259000", "115343.263000", "115343.266000", "115343.269000", "115343.272000", "115343.277000", "115343.280000", "115343.284000", "115343.287000", "115343.290000", "115343.294000", "115343.297000", "115343.300000", "115403.236000", "115403.240000", "115403.243000", "115403.246000", "115403.249000", "115403.253000", "115403.256000", "115403.259000", "115403.263000", "115403.266000", "115403.269000", "115403.272000", "115403.275000", "115403.279000", "115403.282000", "115403.285000", "115403.288000", "115403.292000", "115403.295000", "115403.298000", "115443.236000", "115443.240000", "115443.243000", "115443.247000", "115443.250000", "115443.253000", "115443.256000", "115443.260000", "115443.263000", "115443.266000", "115443.270000", "115443.273000", "115443.276000", "115443.279000", "115443.283000", "115443.286000", "115443.289000", "115443.293000", "115443.296000", "115443.299000", "115443.302000", "115443.305000", "115443.308000", "115443.312000", "115443.315000", "115443.318000", "115443.321000", "115443.325000", "115443.328000", "115443.331000", "115523.236000", "115523.240000", "115523.243000", "115523.247000", "115523.265000", "115523.268000", "115523.271000", "115523.275000", "115523.278000", "115523.281000", "115523.284000", "115523.288000", "115523.291000", "115523.294000", "115523.298000", "115523.301000", "115523.304000", "115523.307000", "115523.311000", "115523.314000", "115523.317000", "115523.321000", "115523.324000", "115523.327000", "115523.330000", "115523.334000", "115603.236000", "115603.240000", "115603.243000", "115603.247000", "115603.250000", "115603.253000", "115603.257000", "115603.260000", "115603.263000", "115603.266000", "115603.270000", "115603.273000", "115603.276000", "115603.279000", "115603.283000", "115603.286000", "115603.289000", "115603.292000", "115603.295000", "115603.299000", "115603.302000", "115603.305000", "115603.308000", "115603.312000", "115603.315000", "115603.318000", "115603.321000", "115627.359000", "115627.362000", "115627.365000", "115627.378000", "115627.381000", "115627.384000", "115627.387000", "115627.391000", "115627.394000", "115627.397000", "115627.401000", "115627.404000", "115627.407000", "115627.410000", "115627.414000", "115627.417000", "115627.420000"],
      "InstanceNumber": [1, 2, 3, 4, 5, 6, 7, 8, 9, 10, 11, 12, 13, 14, 15, 16, 17, 18, 19, 20, 21, 22, 23, 24, 25, 26, 27, 28, 29, 30, 31, 32, 33, 34, 35, 36, 37, 38, 39, 40, 41, 42, 43, 44, 45, 46, 47, 48, 49, 50, 51, 52, 53, 54, 55, 56, 57, 58, 59, 60, 61, 62, 63, 64, 65, 66, 67, 68, 69, 70, 71, 72, 73, 74, 75, 76, 77, 78, 79, 80, 81, 82, 83, 84, 85, 86, 87, 88, 89, 90, 91, 92, 93, 94, 95, 96, 97, 98, 99, 100, 101, 102, 103, 104, 105, 106, 107, 108, 109, 110, 111, 112, 113, 114, 115, 116, 117, 118, 119, 120, 121, 122, 123, 124, 125, 126, 127, 128, 129, 130, 131, 132, 133, 134, 135, 136, 137, 138, 139, 140, 141, 142, 143, 144, 145, 146, 147, 148, 149, 150, 151, 152, 153, 154, 155, 156, 157, 158, 159, 160, 161, 162, 163, 164, 165, 166, 167, 168, 169, 170, 171, 172, 173, 174, 175, 176, 177, 178, 179, 180, 181, 182, 183, 184, 185, 186, 187, 188, 189, 190, 191, 192, 193, 194, 195, 196, 197, 198, 199, 200, 201, 202],
      "LargestImagePixelValue": [48631, 47742, 47549, 46761, 46856, 46308, 46701, 47348, 46793, 46680, 47175, 46759, 46820, 45588, 46536, 46739, 46788, 46477, 46421, 46668, 46896, 46995, 46297, 47031, 47006, 46866, 47780, 47288, 46779, 47243, 47181, 46895, 46814, 47183, 47516, 46866, 47339, 46927, 47212, 47493, 47583, 47148, 47263, 47130, 47147, 47303, 47513, 47309, 46880, 46412, 46504, 46683, 46453, 46169, 46388, 46710, 46639, 46953, 46615, 46347, 46241, 46386, 46510, 46659, 46248, 46765, 46705, 47028, 46369, 45993, 46534, 46674, 46613, 46596, 46435, 46999, 46300, 47032, 46527, 46461, 46471, 46524, 46296, 46649, 46325, 46413, 46586, 46539, 45951, 46567, 46727, 47503, 46137, 46587, 45999, 46607, 46918, 46616, 46790, 46523, 46677, 45947, 47207, 46335, 46349, 46074, 46685, 47070, 46968, 46455, 46566, 46543, 46308, 47032, 46782, 47433, 47231, 47275, 47124, 47397, 47677, 47113, 46834, 46737, 46847, 46900, 46564, 47031, 46765, 46858, 46990, 47023, 47222, 46578, 47062, 46375, 46772, 46705, 46452, 46499, 46444, 46375, 46596, 46745, 46629, 46720, 46190, 46708, 47090, 46635, 46919, 46797, 46612, 46921, 46632, 46596, 46454, 46680, 47282, 47046, 47416, 46356, 46763, 46854, 46766, 46851, 46526, 46234, 46873, 47083, 47270, 47005, 46896, 46854, 46575, 46865, 47226, 46567, 46503, 46230, 46607, 47029, 46020, 46133, 46499, 46603, 46443, 46695, 46711, 46320, 46207, 46492, 46366, 46215, 46270, 46612, 46321, 46552, 46914, 47134, 46498, 46357],
      "WindowCenter": [11156.0, 11098.0, 11061.0, 11018.0, 10994.0, 10977.0, 10980.0, 10986.0, 10993.0, 10983.0, 11010.0, 11011.0, 11016.0, 11000.0, 11025.0, 11052.0, 11051.0, 11056.0, 11030.0, 11036.0, 11071.0, 11064.0, 11048.0, 11013.0, 10999.0, 11035.0, 11065.0, 11061.0, 11040.0, 10990.0, 10954.0, 10957.0, 10997.0, 11050.0, 11050.0, 11023.0, 10996.0, 10978.0, 11007.0, 11037.0, 11047.0, 11024.0, 11015.0, 11003.0, 10996.0, 10995.0, 10993.0, 10999.0, 11008.0, 11004.0, 11016.0, 11026.0, 11020.0, 11014.0, 11022.0, 11023.0, 11017.0, 11017.0, 11010.0, 11003.0, 11000.0, 11004.0, 11014.0, 11012.0, 11002.0, 11014.0, 11024.0, 11014.0, 11017.0, 10988.0, 10968.0, 11018.0, 11077.0, 11076.0, 11060.0, 11047.0, 11030.0, 11011.0, 10980.0, 10965.0, 10956.0, 10958.0, 10966.0, 10970.0, 10972.0, 10975.0, 10995.0, 10996.0, 10979.0, 10989.0, 11020.0, 11083.0, 11073.0, 11057.0, 11005.0, 11008.0, 11024.0, 11025.0, 11017.0, 10995.0, 10964.0, 10931.0, 10956.0, 10979.0, 10990.0, 10959.0, 10962.0, 10960.0, 10975.0, 10991.0, 11013.0, 10996.0, 10984.0, 10981.0, 10983.0, 10993.0, 11002.0, 11003.0, 11012.0, 11021.0, 11031.0, 11023.0, 11005.0, 11012.0, 11009.0, 11023.0, 11029.0, 11025.0, 11021.0, 11014.0, 11008.0, 11009.0, 11014.0, 11001.0, 10990.0, 10976.0, 10989.0, 10992.0, 10992.0, 10994.0, 10985.0, 10986.0, 10999.0, 10991.0, 10987.0, 10980.0, 10978.0, 11006.0, 11007.0, 10989.0, 11003.0, 11009.0, 11011.0, 11009.0, 10980.0, 10968.0, 10945.0, 10980.0, 11041.0, 11058.0, 11055.0, 11000.0, 10965.0, 10983.0, 10990.0, 11000.0, 11011.0, 10989.0, 10975.0, 10987.0, 10996.0, 10962.0, 10976.0, 10975.0, 10955.0, 10952.0, 11004.0, 11017.0, 10998.0, 10981.0, 11002.0, 11021.0, 10999.0, 10996.0, 10987.0, 10975.0, 10964.0, 10985.0, 10998.0, 11003.0, 10993.0, 10989.0, 10961.0, 10949.0, 10971.0, 10982.0, 10979.0, 10977.0, 10965.0, 10943.0, 10954.0, 10983.0],
      "WindowWidth": [24071.0, 23902.0, 23791.0, 23684.0, 23622.0, 23580.0, 23586.0, 23596.0, 23616.0, 23592.0, 23649.0, 23659.0, 23668.0, 23637.0, 23690.0, 23753.0, 23749.0, 23765.0, 23703.0, 23713.0, 23796.0, 23779.0, 23747.0, 23663.0, 23627.0, 23708.0, 23775.0, 23767.0, 23723.0, 23602.0, 23521.0, 23526.0, 23619.0, 23743.0, 23744.0, 23685.0, 23618.0, 23578.0, 23641.0, 23713.0, 23737.0, 23685.0, 23664.0, 23636.0, 23619.0, 23619.0, 23614.0, 23627.0, 23645.0, 23641.0, 23667.0, 23691.0, 23680.0, 23668.0, 23684.0, 23684.0, 23668.0, 23671.0, 23654.0, 23640.0, 23630.0, 23642.0, 23665.0, 23660.0, 23637.0, 23663.0, 23687.0, 23665.0, 23674.0, 23610.0, 23559.0, 23670.0, 23805.0, 23808.0, 23769.0, 23732.0, 23687.0, 23645.0, 23578.0, 23543.0, 23525.0, 23531.0, 23550.0, 23557.0, 23564.0, 23568.0, 23611.0, 23621.0, 23583.0, 23604.0, 23673.0, 23815.0, 23803.0, 23759.0, 23642.0, 23641.0, 23678.0, 23677.0, 23656.0, 23606.0, 23534.0, 23463.0, 23515.0, 23570.0, 23598.0, 23531.0, 23534.0, 23530.0, 23563.0, 23603.0, 23652.0, 23619.0, 23587.0, 23578.0, 23585.0, 23605.0, 23625.0, 23630.0, 23648.0, 23670.0, 23691.0, 23673.0, 23636.0, 23653.0, 23648.0, 23676.0, 23695.0, 23683.0, 23675.0, 23659.0, 23641.0, 23645.0, 23653.0, 23627.0, 23601.0, 23570.0, 23597.0, 23606.0, 23605.0, 23609.0, 23588.0, 23588.0, 23618.0, 23601.0, 23589.0, 23574.0, 23574.0, 23635.0, 23641.0, 23600.0, 23629.0, 23646.0, 23651.0, 23643.0, 23583.0, 23554.0, 23500.0, 23579.0, 23719.0, 23762.0, 23751.0, 23626.0, 23541.0, 23583.0, 23600.0, 23623.0, 23648.0, 23601.0, 23566.0, 23594.0, 23615.0, 23537.0, 23568.0, 23570.0, 23523.0, 23511.0, 23630.0, 23663.0, 23624.0, 23586.0, 23630.0, 23674.0, 23625.0, 23619.0, 23596.0, 23570.0, 23541.0, 23585.0, 23616.0, 23626.0, 23610.0, 23595.0, 23531.0, 23503.0, 23554.0, 23580.0, 23575.0, 23571.0, 23542.0, 23488.0, 23516.0, 23583.0]
    },
    "slices": {}
  }
}