{
  "AcquisitionMatrixPE": 104,
  "AcquisitionNumber": 1,
  "AcquisitionTime": "18:27:22.227500",
  "BandwidthPerPixelPhaseEncode": 17.17,
  "BaseResolution": 104,
  "BodyPartExamined": "BRAIN",
  "CoilString": "HC1-7;NC1_2",
  "ConsistencyInfo": "N4_VE11C_LATEST_20160120",
  "ConversionSoftware": "dcm2niix",
  "ConversionSoftwareVersion": "v1.0.20190902",
  "DerivedVendorReportedEchoSpacing": 0.000560011,
  "DeviceSerialNumber": "167006",
  "DwellTime": 2.1e-06,
  "EchoTime": 0.037,
  "EchoTrainLength": 104,
  "EffectiveEchoSpacing": 0.000560011,
  "FlipAngle": 52,
  "ImageComments": "Unaliased_MB4_PE3_LB",
  "ImageOrientationPatientDICOM": [0.993579, 0.104819, 0.042584, -0.0783708, 0.909095, -0.40915],
  "ImageType": [
    "ORIGINAL",
    "PRIMARY",
    "M",
    "MB",
    "ND",
    "MOSAIC"
],
  "ImagingFrequency": 123.259,
  "InPlanePhaseEncodingDirectionDICOM": "COL",
  "InstitutionAddress": "Chemin_Queen-Mary_4565_Montreal_District_CA_H3W_1W5",
  "InstitutionName": "IUGM",
  "InstitutionalDepartmentName": "Department",
  "MRAcquisitionType": "2D",
  "MagneticFieldStrength": 3,
  "Manufacturer": "Siemens",
  "ManufacturersModelName": "Prisma_fit",
  "Modality": "MR",
  "MultibandAccelerationFactor": 4,
  "PartialFourier": 1,
  "PatientPosition": "HFS",
  "PercentPhaseFOV": 100,
  "PhaseEncodingDirection": "j",
  "PhaseEncodingSteps": 104,
  "PhaseResolution": 1,
  "PixelBandwidth": 2290,
  "ProcedureStepDescription": "localizers_retinotopy",
  "ProtocolName": "func_task-bars",
  "PulseSequenceDetails": "%CustomerSeq%_cmrr_mbep2d_bold",
  "ReceiveCoilActiveElements": "HC1-7;NC1,2",
  "ReceiveCoilName": "HeadNeck_64",
  "ReconMatrixPE": 104,
  "RepetitionTime": 1.49,
  "SAR": 0.0390656,
  "ScanOptions": "FS",
  "ScanningSequence": "EP",
  "SequenceName": "epfid2d1_104",
  "SequenceVariant": "SK_SS",
  "SeriesDescription": "func_task-bars",
  "SeriesNumber": 16,
  "ShimSetting": [633, -7209, -8832, 658, 68, -42, -12, 4],
  "SliceThickness": 2,
  "SliceTiming": [0, 0.7825, 0.0975, 0.8825, 0.195, 0.98, 0.2925, 1.0775, 0.3925, 1.175, 0.49, 1.2725, 0.5875, 1.3725, 0.685, 0, 0.7825, 0.0975, 0.8825, 0.195, 0.98, 0.2925, 1.0775, 0.3925, 1.175, 0.49, 1.2725, 0.5875, 1.3725, 0.685, 0, 0.7825, 0.0975, 0.8825, 0.195, 0.98, 0.2925, 1.0775, 0.3925, 1.175, 0.49, 1.2725, 0.5875, 1.3725, 0.685, 0, 0.7825, 0.0975, 0.8825, 0.195, 0.98, 0.2925, 1.0775, 0.3925, 1.175, 0.49, 1.2725, 0.5875, 1.3725, 0.685],
  "SoftwareVersions": "syngo_MR_E11",
  "SpacingBetweenSlices": 2,
  "StationName": "MRC35049",
  "TaskName": "bars",
  "TotalReadoutTime": 0.0576811,
  "TxRefAmp": 249.322,
  "WipMemBlock": "d5337de3-cf99-4db8-9580-26aedc9f84b8||Sequence: R016 ve11c/master r/e634e98; Dec 19 2017 11:00:25 by eja",
  "dcmmeta_affine": [
    [-1.9871582984924316, -0.15674161911010742, 0.16319958865642548, 109.32077026367188],
    [-0.20963887870311737, 1.818190336227417, -0.8063716888427734, -44.69518280029297],
    [0.08516795933246613, 0.8183005452156067, 1.8229455947875977, -70.3663330078125],
    [0.0, 0.0, 0.0, 1.0]
],
  "dcmmeta_reorient_transform": [
    [0.0, -1.0, 0.0, 103.0],
    [1.0, 0.0, 0.0, 0.0],
    [0.0, 0.0, 1.0, 0.0],
    [0.0, 0.0, 0.0, 1.0]
],
  "dcmmeta_shape": [104, 104, 60, 202],
  "dcmmeta_slice_dim": 2,
  "dcmmeta_version": 0.6,
  "global": {
    "const": {
      "AcquisitionMatrix": [104, 0, 0, 104],
      "AngioFlag": "N",
      "BitsAllocated": 16,
      "BitsStored": 16,
      "BodyPartExamined": "BRAIN",
      "Columns": 832,
      "EchoNumbers": 1,
      "EchoTime": 37.0,
      "EchoTrainLength": 104,
      "FlipAngle": 52.0,
      "HighBit": 15,
      "ImageOrientationPatient": [0.99357913112743, 0.10481943976673, 0.04258397861936, -0.0783708101231, 0.90909518846482, -0.4091502834299],
      "ImagePositionPatient": [-759.44804258094, -880.70827638323, 280.77889428585],
      "ImageType": [
        "ORIGINAL",
        "PRIMARY",
        "M",
        "MB",
        "ND",
        "MOSAIC"
],
      "ImagedNucleus": "1H",
      "ImagingFrequency": 123.258983,
      "InPlanePhaseEncodingDirection": "COL",
      "MRAcquisitionType": "2D",
      "MagneticFieldStrength": 3.0,
      "Manufacturer": "SIEMENS",
      "ManufacturerModelName": "Prisma_fit",
      "Modality": "MR",
      "NumberOfAverages": 1.0,
      "NumberOfPhaseEncodingSteps": 104,
      "PercentPhaseFieldOfView": 100.0,
      "PercentSampling": 100.0,
      "PerformedProcedureStepStartTime": "181326.624000",
      "PhotometricInterpretation": "MONOCHROME2",
      "PixelBandwidth": 2290.0,
      "PixelRepresentation": 0,
      "PixelSpacing": [2.0, 2.0],
      "ProtocolName": "func_task-bars",
      "RepetitionTime": 1490.0,
      "Rows": 832,
      "SAR": 0.03906561834531,
      "SamplesPerPixel": 1,
      "ScanOptions": "FS",
      "ScanningSequence": "EP",
      "SequenceName": "epfid2d1_104",
      "SequenceVariant": [
        "SK",
        "SS"
],
      "SeriesDescription": "func_task-bars",
      "SeriesNumber": 16,
      "SeriesTime": "182846.009000",
      "SliceLocation": -37.195981985403,
      "SliceThickness": 2.0,
      "SmallestImagePixelValue": 0,
      "SoftwareVersions": "syngo MR E11",
      "SpacingBetweenSlices": 1.9999999996845,
      "SpecificCharacterSet": "ISO_IR 100",
      "StudyID": "1",
      "StudyTime": "181326.548000",
      "TransmitCoilName": "Body",
      "VariableFlipAngleFlag": "N",
      "WindowCenterWidthExplanation": "Algo1",
      "dBdt": 0.0},
    "slices": {}
  },
  "time": {
    "samples": {
      "AcquisitionNumber": [1, 2, 3, 4, 5, 6, 7, 8, 9, 10, 11, 12, 13, 14, 15, 16, 17, 18, 19, 20, 21, 22, 23, 24, 25, 26, 27, 28, 29, 30, 31, 32, 33, 34, 35, 36, 37, 38, 39, 40, 41, 42, 43, 44, 45, 46, 47, 48, 49, 50, 51, 52, 53, 54, 55, 56, 57, 58, 59, 60, 61, 62, 63, 64, 65, 66, 67, 68, 69, 70, 71, 72, 73, 74, 75, 76, 77, 78, 79, 80, 81, 82, 83, 84, 85, 86, 87, 88, 89, 90, 91, 92, 93, 94, 95, 96, 97, 98, 99, 100, 101, 102, 103, 104, 105, 106, 107, 108, 109, 110, 111, 112, 113, 114, 115, 116, 117, 118, 119, 120, 121, 122, 123, 124, 125, 126, 127, 128, 129, 130, 131, 132, 133, 134, 135, 136, 137, 138, 139, 140, 141, 142, 143, 144, 145, 146, 147, 148, 149, 150, 151, 152, 153, 154, 155, 156, 157, 158, 159, 160, 161, 162, 163, 164, 165, 166, 167, 168, 169, 170, 171, 172, 173, 174, 175, 176, 177, 178, 179, 180, 181, 182, 183, 184, 185, 186, 187, 188, 189, 190, 191, 192, 193, 194, 195, 196, 197, 198, 199, 200, 201, 202],
      "AcquisitionTime": ["182722.227500", "182723.717500", "182725.207500", "182726.697500", "182728.187500", "182729.677500", "182731.167500", "182732.657500", "182734.147500", "182735.637500", "182737.127500", "182738.617500", "182740.107500", "182741.597500", "182743.087500", "182744.577500", "182746.067500", "182747.557500", "182749.047500", "182750.537500", "182752.027500", "182753.517500", "182755.007500", "182756.497500", "182757.987500", "182759.477500", "182800.967500", "182802.457500", "182803.947500", "182805.437500", "182806.927500", "182808.417500", "182809.907500", "182811.397500", "182812.887500", "182814.377500", "182815.867500", "182817.357500", "182818.847500", "182820.337500", "182821.827500", "182823.317500", "182824.807500", "182826.297500", "182827.787500", "182829.277500", "182830.767500", "182832.257500", "182833.747500", "182835.237500", "182836.727500", "182838.217500", "182839.707500", "182841.197500", "182842.687500", "182844.177500", "182845.667500", "182847.157500", "182848.647500", "182850.137500", "182851.627500", "182853.117500", "182854.607500", "182856.097500", "182857.587500", "182859.077500", "182900.567500", "182902.057500", "182903.547500", "182905.037500", "182906.527500", "182908.017500", "182909.507500", "182910.997500", "182912.487500", "182913.977500", "182915.467500", "182916.957500", "182918.447500", "182919.937500", "182921.427500", "182922.917500", "182924.407500", "182925.897500", "182927.387500", "182928.877500", "182930.367500", "182931.857500", "182933.347500", "182934.837500", "182936.327500", "182937.817500", "182939.307500", "182940.797500", "182942.287500", "182943.777500", "182945.267500", "182946.757500", "182948.247500", "182949.737500", "182951.227500", "182952.717500", "182954.207500", "182955.697500", "182957.187500", "182958.677500", "183000.167500", "183001.657500", "183003.147500", "183004.637500", "183006.127500", "183007.617500", "183009.107500", "183010.597500", "183012.087500", "183013.577500", "183015.067500", "183016.557500", "183018.047500", "183019.537500", "183021.027500", "183022.517500", "183024.007500", "183025.497500", "183026.987500", "183028.477500", "183029.967500", "183031.457500", "183032.947500", "183034.437500", "183035.927500", "183037.417500", "183038.907500", "183040.397500", "183041.887500", "183043.377500", "183044.867500", "183046.357500", "183047.847500", "183049.337500", "183050.827500", "183052.317500", "183053.807500", "183055.297500", "183056.787500", "183058.277500", "183059.767500", "183101.257500", "183102.747500", "183104.237500", "183105.727500", "183107.217500", "183108.707500", "183110.197500", "183111.687500", "183113.177500", "183114.667500", "183116.157500", "183117.647500", "183119.137500", "183120.627500", "183122.117500", "183123.607500", "183125.097500", "183126.587500", "183128.077500", "183129.567500", "183131.057500", "183132.547500", "183134.037500", "183135.527500", "183137.017500", "183138.507500", "183139.997500", "183141.487500", "183142.977500", "183144.467500", "183145.957500", "183147.447500", "183148.937500", "183150.427500", "183151.917500", "183153.407500", "183154.897500", "183156.387500", "183157.877500", "183159.367500", "183200.857500", "183202.347500", "183203.837500", "183205.327500", "183206.817500", "183208.307500", "183209.797500", "183211.287500", "183212.777500", "183214.267500", "183215.757500", "183217.247500", "183218.737500", "183220.227500", "183221.717500"],
      "ContentTime": ["182846.012000", "182846.018000", "182846.022000", "182846.025000", "182846.029000", "182846.032000", "182846.036000", "182846.039000", "182846.043000", "182846.046000", "182846.049000", "182846.053000", "182846.056000", "182846.060000", "182846.063000", "182846.066000", "182846.070000", "182846.073000", "182846.077000", "182846.080000", "182846.084000", "182846.087000", "182846.091000", "182846.094000", "182846.097000", "182846.101000", "182846.104000", "182846.108000", "182846.111000", "182846.121000", "182905.976000", "182905.980000", "182905.984000", "182905.994000", "182905.998000", "182906.001000", "182906.005000", "182906.008000", "182906.011000", "182906.015000", "182906.018000", "182906.022000", "182906.025000", "182906.028000", "182906.032000", "182906.035000", "182906.038000", "182906.042000", "182906.046000", "182906.049000", "182906.052000", "182925.976000", "182925.980000", "182925.983000", "182925.987000", "182925.990000", "182925.994000", "182925.997000", "182926.002000", "182926.005000", "182926.009000", "182926.012000", "182926.015000", "182926.030000", "182926.033000", "182926.036000", "182926.040000", "182926.043000", "182926.047000", "182926.050000", "182926.054000", "182945.977000", "182945.981000", "182945.985000", "182945.988000", "182945.991000", "182945.995000", "182945.998000", "182946.002000", "182946.005000", "182946.008000", "182946.012000", "182946.015000", "182946.019000", "182946.022000", "182946.025000", "182946.029000", "182946.032000", "182946.036000", "182946.039000", "182946.042000", "183025.977000", "183025.981000", "183025.984000", "183025.988000", "183025.991000", "183025.995000", "183025.998000", "183026.002000", "183026.005000", "183026.008000", "183026.012000", "183026.015000", "183026.019000", "183026.022000", "183026.025000", "183026.029000", "183026.033000", "183026.036000", "183026.039000", "183026.043000", "183026.046000", "183026.050000", "183026.053000", "183026.056000", "183026.060000", "183026.063000", "183026.067000", "183026.071000", "183026.074000", "183026.078000", "183026.081000", "183105.977000", "183105.981000", "183105.985000", "183105.988000", "183105.992000", "183105.995000", "183105.998000", "183106.003000", "183106.006000", "183106.010000", "183106.013000", "183106.017000", "183106.020000", "183106.023000", "183106.027000", "183106.030000", "183106.034000", "183106.037000", "183106.041000", "183106.044000", "183106.048000", "183106.051000", "183106.054000", "183106.058000", "183106.061000", "183106.065000", "183106.068000", "183145.976000", "183145.980000", "183145.983000", "183145.987000", "183145.991000", "183145.994000", "183145.998000", "183146.001000", "183146.005000", "183146.008000", "183146.012000", "183146.015000", "183146.019000", "183146.022000", "183146.026000", "183146.029000", "183146.032000", "183146.036000", "183146.039000", "183146.043000", "183146.046000", "183146.050000", "183146.053000", "183146.056000", "183146.060000", "183146.063000", "183146.067000", "183223.874000", "183223.877000", "183223.881000", "183223.884000", "183223.888000", "183223.891000", "183223.895000", "183223.898000", "183223.901000", "183223.905000", "183223.908000", "183223.912000", "183223.915000", "183223.919000", "183223.922000", "183223.925000", "183223.929000", "183223.932000", "183223.936000", "183223.939000", "183223.943000", "183223.946000", "183223.949000", "183223.953000", "183223.957000", "183223.960000"],
      "InstanceCreationTime": ["182846.012000", "182846.018000", "182846.022000", "182846.025000", "182846.029000", "182846.032000", "182846.036000", "182846.039000", "182846.043000", "182846.046000", "182846.049000", "182846.053000", "182846.056000", "182846.060000", "182846.063000", "182846.066000", "182846.070000", "182846.073000", "182846.077000", "182846.080000", "182846.084000", "182846.087000", "182846.091000", "182846.094000", "182846.097000", "182846.101000", "182846.104000", "182846.108000", "182846.111000", "182846.121000", "182905.976000", "182905.980000", "182905.984000", "182905.994000", "182905.998000", "182906.001000", "182906.005000", "182906.008000", "182906.011000", "182906.015000", "182906.018000", "182906.022000", "182906.025000", "182906.028000", "182906.032000", "182906.035000", "182906.038000", "182906.042000", "182906.046000", "182906.049000", "182906.052000", "182925.976000", "182925.980000", "182925.983000", "182925.987000", "182925.990000", "182925.994000", "182925.997000", "182926.002000", "182926.005000", "182926.009000", "182926.012000", "182926.015000", "182926.030000", "182926.033000", "182926.036000", "182926.040000", "182926.043000", "182926.047000", "182926.050000", "182926.054000", "182945.977000", "182945.981000", "182945.985000", "182945.988000", "182945.991000", "182945.995000", "182945.998000", "182946.002000", "182946.005000", "182946.008000", "182946.012000", "182946.015000", "182946.019000", "182946.022000", "182946.025000", "182946.029000", "182946.032000", "182946.036000", "182946.039000", "182946.042000", "183025.977000", "183025.981000", "183025.984000", "183025.988000", "183025.991000", "183025.995000", "183025.998000", "183026.002000", "183026.005000", "183026.008000", "183026.012000", "183026.015000", "183026.019000", "183026.022000", "183026.025000", "183026.029000", "183026.033000", "183026.036000", "183026.039000", "183026.043000", "183026.046000", "183026.050000", "183026.053000", "183026.056000", "183026.060000", "183026.063000", "183026.067000", "183026.071000", "183026.074000", "183026.078000", "183026.081000", "183105.977000", "183105.981000", "183105.985000", "183105.988000", "183105.992000", "183105.995000", "183105.998000", "183106.003000", "183106.006000", "183106.010000", "183106.013000", "183106.017000", "183106.020000", "183106.023000", "183106.027000", "183106.030000", "183106.034000", "183106.037000", "183106.041000", "183106.044000", "183106.048000", "183106.051000", "183106.054000", "183106.058000", "183106.061000", "183106.065000", "183106.068000", "183145.976000", "183145.980000", "183145.983000", "183145.987000", "183145.991000", "183145.994000", "183145.998000", "183146.001000", "183146.005000", "183146.008000", "183146.012000", "183146.015000", "183146.019000", "183146.022000", "183146.026000", "183146.029000", "183146.032000", "183146.036000", "183146.039000", "183146.043000", "183146.046000", "183146.050000", "183146.053000", "183146.056000", "183146.060000", "183146.063000", "183146.067000", "183223.874000", "183223.877000", "183223.881000", "183223.884000", "183223.888000", "183223.891000", "183223.895000", "183223.898000", "183223.901000", "183223.905000", "183223.908000", "183223.912000", "183223.915000", "183223.919000", "183223.922000", "183223.925000", "183223.929000", "183223.932000", "183223.936000", "183223.939000", "183223.943000", "183223.946000", "183223.949000", "183223.953000", "183223.957000", "183223.960000"],
      "InstanceNumber": [1, 2, 3, 4, 5, 6, 7, 8, 9, 10, 11, 12, 13, 14, 15, 16, 17, 18, 19, 20, 21, 22, 23, 24, 25, 26, 27, 28, 29, 30, 31, 32, 33, 34, 35, 36, 37, 38, 39, 40, 41, 42, 43, 44, 45, 46, 47, 48, 49, 50, 51, 52, 53, 54, 55, 56, 57, 58, 59, 60, 61, 62, 63, 64, 65, 66, 67, 68, 69, 70, 71, 72, 73, 74, 75, 76, 77, 78, 79, 80, 81, 82, 83, 84, 85, 86, 87, 88, 89, 90, 91, 92, 93, 94, 95, 96, 97, 98, 99, 100, 101, 102, 103, 104, 105, 106, 107, 108, 109, 110, 111, 112, 113, 114, 115, 116, 117, 118, 119, 120, 121, 122, 123, 124, 125, 126, 127, 128, 129, 130, 131, 132, 133, 134, 135, 136, 137, 138, 139, 140, 141, 142, 143, 144, 145, 146, 147, 148, 149, 150, 151, 152, 153, 154, 155, 156, 157, 158, 159, 160, 161, 162, 163, 164, 165, 166, 167, 168, 169, 170, 171, 172, 173, 174, 175, 176, 177, 178, 179, 180, 181, 182, 183, 184, 185, 186, 187, 188, 189, 190, 191, 192, 193, 194, 195, 196, 197, 198, 199, 200, 201, 202],
      "LargestImagePixelValue": [46939, 45104, 44453, 43891, 44286, 44989, 44381, 44559, 44955, 44018, 43863, 43174, 42938, 43830, 43379, 43919, 44415, 44094, 43987, 43713, 44088, 44362, 44573, 44100, 44325, 43966, 43672, 43574, 43935, 44196, 43681, 44537, 43922, 44526, 43931, 43378, 43742, 43555, 44160, 44451, 44159, 44127, 44671, 44712, 43850, 43856, 44098, 43764, 43267, 43943, 44172, 44127, 44725, 44578, 44949, 44453, 43832, 43999, 43964, 44335, 44365, 44862, 43865, 43897, 44103, 44227, 44702, 44602, 44769, 44435, 44404, 44199, 44069, 44776, 44979, 45225, 44167, 44700, 44732, 44637, 44153, 43593, 43682, 43760, 44029, 44729, 44607, 44796, 44446, 44305, 43987, 44764, 44628, 44627, 44459, 44368, 44103, 44514, 44867, 44800, 44904, 44448, 44133, 43639, 43936, 44326, 44416, 43961, 43692, 43854, 43829, 43824, 44239, 44570, 44428, 44511, 44175, 43638, 43768, 43978, 44376, 42943, 43509, 43737, 44761, 44559, 44818, 44443, 43723, 43714, 44072, 43816, 43964, 44560, 44572, 43872, 43873, 43689, 43312, 43881, 44353, 44376, 44762, 44503, 44411, 44106, 43660, 44332, 44199, 44787, 44209, 43804, 43837, 43588, 44606, 44487, 44236, 43356, 43537, 43671, 43672, 44578, 43181, 43691, 44458, 44421, 44214, 43972, 43825, 44313, 43927, 44150, 43133, 43002, 43639, 44340, 44568, 44040, 43852, 43501, 42774, 43578, 43964, 44473, 45121, 44797, 44910, 44274, 44710, 42629, 41231, 42638, 44152, 44342, 44461, 43545, 44172, 44404, 43858, 43274, 43446, 44242],
      "WindowCenter": [10506.0, 10456.0, 10462.0, 10451.0, 10438.0, 10433.0, 10435.0, 10444.0, 10452.0, 10449.0, 10465.0, 10464.0, 10453.0, 10450.0, 10441.0, 10458.0, 10481.0, 10488.0, 10489.0, 10485.0, 10474.0, 10470.0, 10473.0, 10479.0, 10480.0, 10486.0, 10496.0, 10471.0, 10449.0, 10445.0, 10448.0, 10477.0, 10476.0, 10474.0, 10459.0, 10458.0, 10452.0, 10448.0, 10453.0, 10458.0, 10476.0, 10498.0, 10505.0, 10490.0, 10468.0, 10458.0, 10454.0, 10472.0, 10488.0, 10493.0, 10476.0, 10459.0, 10463.0, 10470.0, 10481.0, 10497.0, 10493.0, 10471.0, 10457.0, 10446.0, 10453.0, 10453.0, 10456.0, 10468.0, 10474.0, 10473.0, 10471.0, 10464.0, 10462.0, 10462.0, 10464.0, 10457.0, 10456.0, 10461.0, 10475.0, 10479.0, 10486.0, 10487.0, 10464.0, 10447.0, 10448.0, 10468.0, 10493.0, 10480.0, 10457.0, 10444.0, 10436.0, 10448.0, 10445.0, 10455.0, 10467.0, 10472.0, 10454.0, 10443.0, 10443.0, 10445.0, 10456.0, 10467.0, 10469.0, 10457.0, 10452.0, 10454.0, 10451.0, 10460.0, 10464.0, 10462.0, 10454.0, 10446.0, 10474.0, 10501.0, 10479.0, 10459.0, 10446.0, 10444.0, 10442.0, 10438.0, 10445.0, 10450.0, 10442.0, 10430.0, 10416.0, 10398.0, 10445.0, 10473.0, 10470.0, 10439.0, 10437.0, 10441.0, 10453.0, 10445.0, 10426.0, 10411.0, 10416.0, 10425.0, 10439.0, 10443.0, 10454.0, 10450.0, 10434.0, 10434.0, 10447.0, 10454.0, 10463.0, 10473.0, 10482.0, 10460.0, 10435.0, 10434.0, 10435.0, 10459.0, 10487.0, 10493.0, 10459.0, 10433.0, 10434.0, 10434.0, 10444.0, 10461.0, 10461.0, 10436.0, 10416.0, 10418.0, 10421.0, 10453.0, 10486.0, 10456.0, 10411.0, 10396.0, 10399.0, 10408.0, 10425.0, 10434.0, 10442.0, 10438.0, 10430.0, 10425.0, 10421.0, 10426.0, 10462.0, 10479.0, 10458.0, 10434.0, 10421.0, 10430.0, 10448.0, 10448.0, 10443.0, 10440.0, 10463.0, 10451.0, 10413.0, 10409.0, 10415.0, 10420.0, 10416.0, 10414.0, 10431.0, 10439.0, 10416.0, 10395.0, 10392.0, 10397.0],
      "WindowWidth": [22309.0, 22181.0, 22192.0, 22172.0, 22134.0, 22116.0, 22122.0, 22143.0, 22159.0, 22153.0, 22190.0, 22197.0, 22169.0, 22162.0, 22138.0, 22176.0, 22228.0, 22252.0, 22251.0, 22240.0, 22211.0, 22201.0, 22214.0, 22225.0, 22224.0, 22243.0, 22269.0, 22207.0, 22153.0, 22140.0, 22151.0, 22217.0, 22218.0, 22208.0, 22177.0, 22177.0, 22164.0, 22152.0, 22160.0, 22170.0, 22215.0, 22271.0, 22282.0, 22245.0, 22197.0, 22172.0, 22163.0, 22208.0, 22255.0, 22259.0, 22219.0, 22180.0, 22188.0, 22201.0, 22227.0, 22266.0, 22257.0, 22209.0, 22171.0, 22144.0, 22159.0, 22159.0, 22172.0, 22204.0, 22216.0, 22212.0, 22203.0, 22188.0, 22180.0, 22182.0, 22189.0, 22172.0, 22169.0, 22180.0, 22209.0, 22222.0, 22245.0, 22240.0, 22187.0, 22148.0, 22149.0, 22201.0, 22259.0, 22228.0, 22170.0, 22138.0, 22121.0, 22146.0, 22140.0, 22166.0, 22197.0, 22206.0, 22161.0, 22136.0, 22135.0, 22143.0, 22170.0, 22199.0, 22196.0, 22173.0, 22156.0, 22160.0, 22160.0, 22182.0, 22193.0, 22179.0, 22160.0, 22141.0, 22212.0, 22279.0, 22228.0, 22178.0, 22144.0, 22139.0, 22136.0, 22126.0, 22144.0, 22159.0, 22141.0, 22108.0, 22073.0, 22038.0, 22148.0, 22215.0, 22200.0, 22127.0, 22126.0, 22128.0, 22163.0, 22143.0, 22099.0, 22066.0, 22078.0, 22097.0, 22127.0, 22136.0, 22166.0, 22160.0, 22124.0, 22118.0, 22148.0, 22168.0, 22188.0, 22209.0, 22229.0, 22184.0, 22127.0, 22119.0, 22123.0, 22177.0, 22243.0, 22261.0, 22179.0, 22116.0, 22123.0, 22116.0, 22141.0, 22194.0, 22191.0, 22127.0, 22076.0, 22076.0, 22087.0, 22165.0, 22237.0, 22167.0, 22057.0, 22026.0, 22033.0, 22056.0, 22095.0, 22115.0, 22143.0, 22135.0, 22110.0, 22099.0, 22084.0, 22100.0, 22185.0, 22228.0, 22183.0, 22120.0, 22089.0, 22106.0, 22156.0, 22150.0, 22138.0, 22132.0, 22180.0, 22167.0, 22085.0, 22068.0, 22074.0, 22085.0, 22075.0, 22071.0, 22108.0, 22128.0, 22076.0, 22030.0, 22021.0, 22033.0]
    },
    "slices": {}
  }
}