{
  "AcquisitionMatrixPE": 104,
  "AcquisitionNumber": 1,
  "AcquisitionTime": "18:27:22.227500",
  "BandwidthPerPixelPhaseEncode": 17.17,
  "BaseResolution": 104,
  "BodyPartExamined": "BRAIN",
  "CoilString": "HC1-7;NC1_2",
  "ConsistencyInfo": "N4_VE11C_LATEST_20160120",
  "ConversionSoftware": "dcm2niix",
  "ConversionSoftwareVersion": "v1.0.20190902",
  "DerivedVendorReportedEchoSpacing": 0.000560011,
  "DeviceSerialNumber": "167006",
  "DwellTime": 2.1e-06,
  "EchoTime": 0.037,
  "EchoTrainLength": 104,
  "EffectiveEchoSpacing": 0.000560011,
  "FlipAngle": 52,
  "ImageComments": "Unaliased_MB4_PE3_LB",
  "ImageOrientationPatientDICOM": [0.993579, 0.104819, 0.042584, -0.0783708, 0.909095, -0.40915],
  "ImageType": [
    "ORIGINAL",
    "PRIMARY",
    "P",
    "MB",
    "ND",
    "MOSAIC"
],
  "ImagingFrequency": 123.259,
  "InPlanePhaseEncodingDirectionDICOM": "COL",
  "InstitutionAddress": "Chemin_Queen-Mary_4565_Montreal_District_CA_H3W_1W5",
  "InstitutionName": "IUGM",
  "InstitutionalDepartmentName": "Department",
  "MRAcquisitionType": "2D",
  "MagneticFieldStrength": 3,
  "Manufacturer": "Siemens",
  "ManufacturersModelName": "Prisma_fit",
  "Modality": "MR",
  "MultibandAccelerationFactor": 4,
  "PartialFourier": 1,
  "PatientPosition": "HFS",
  "PercentPhaseFOV": 100,
  "PhaseEncodingDirection": "j",
  "PhaseEncodingSteps": 104,
  "PhaseResolution": 1,
  "PixelBandwidth": 2290,
  "ProcedureStepDescription": "localizers_retinotopy",
  "ProtocolName": "func_task-bars",
  "PulseSequenceDetails": "%CustomerSeq%_cmrr_mbep2d_bold",
  "ReceiveCoilActiveElements": "HC1-7;NC1,2",
  "ReceiveCoilName": "HeadNeck_64",
  "ReconMatrixPE": 104,
  "RepetitionTime": 1.49,
  "SAR": 0.0390656,
  "ScanOptions": "FS",
  "ScanningSequence": "EP",
  "SequenceName": "epfid2d1_104",
  "SequenceVariant": "SK_SS",
  "SeriesDescription": "func_task-bars",
  "SeriesNumber": 17,
  "ShimSetting": [633, -7209, -8832, 658, 68, -42, -12, 4],
  "SliceThickness": 2,
  "SliceTiming": [0, 0.7825, 0.0975, 0.8825, 0.195, 0.98, 0.2925, 1.0775, 0.3925, 1.175, 0.49, 1.2725, 0.5875, 1.3725, 0.685, 0, 0.7825, 0.0975, 0.8825, 0.195, 0.98, 0.2925, 1.0775, 0.3925, 1.175, 0.49, 1.2725, 0.5875, 1.3725, 0.685, 0, 0.7825, 0.0975, 0.8825, 0.195, 0.98, 0.2925, 1.0775, 0.3925, 1.175, 0.49, 1.2725, 0.5875, 1.3725, 0.685, 0, 0.7825, 0.0975, 0.8825, 0.195, 0.98, 0.2925, 1.0775, 0.3925, 1.175, 0.49, 1.2725, 0.5875, 1.3725, 0.685],
  "SoftwareVersions": "syngo_MR_E11",
  "SpacingBetweenSlices": 2,
  "StationName": "MRC35049",
  "TaskName": "bars",
  "TotalReadoutTime": 0.0576811,
  "TxRefAmp": 249.322,
  "WipMemBlock": "d5337de3-cf99-4db8-9580-26aedc9f84b8||Sequence: R016 ve11c/master r/e634e98; Dec 19 2017 11:00:25 by eja",
  "dcmmeta_affine": [
    [-1.9871582984924316, -0.15674161911010742, 0.16319958865642548, 109.32077026367188],
    [-0.20963887870311737, 1.818190336227417, -0.8063716888427734, -44.69518280029297],
    [0.08516795933246613, 0.8183005452156067, 1.8229455947875977, -70.3663330078125],
    [0.0, 0.0, 0.0, 1.0]
],
  "dcmmeta_reorient_transform": [
    [0.0, -1.0, 0.0, 103.0],
    [1.0, 0.0, 0.0, 0.0],
    [0.0, 0.0, 1.0, 0.0],
    [0.0, 0.0, 0.0, 1.0]
],
  "dcmmeta_shape": [104, 104, 60, 202],
  "dcmmeta_slice_dim": 2,
  "dcmmeta_version": 0.6,
  "global": {
    "const": {
      "AcquisitionMatrix": [104, 0, 0, 104],
      "AngioFlag": "N",
      "BitsAllocated": 16,
      "BitsStored": 16,
      "BodyPartExamined": "BRAIN",
      "Columns": 832,
      "EchoNumbers": 1,
      "EchoTime": 37.0,
      "EchoTrainLength": 104,
      "FlipAngle": 52.0,
      "HighBit": 15,
      "ImageOrientationPatient": [0.99357913112743, 0.10481943976673, 0.04258397861936, -0.0783708101231, 0.90909518846482, -0.4091502834299],
      "ImagePositionPatient": [-759.44804258094, -880.70827638323, 280.77889428585],
      "ImageType": [
        "ORIGINAL",
        "PRIMARY",
        "P",
        "MB",
        "ND",
        "MOSAIC"
],
      "ImagedNucleus": "1H",
      "ImagingFrequency": 123.258983,
      "InPlanePhaseEncodingDirection": "COL",
      "LargestImagePixelValue": 4095,
      "MRAcquisitionType": "2D",
      "MagneticFieldStrength": 3.0,
      "Manufacturer": "SIEMENS",
      "ManufacturerModelName": "Prisma_fit",
      "Modality": "MR",
      "NumberOfAverages": 1.0,
      "NumberOfPhaseEncodingSteps": 104,
      "PercentPhaseFieldOfView": 100.0,
      "PercentSampling": 100.0,
      "PerformedProcedureStepStartTime": "181326.624000",
      "PhotometricInterpretation": "MONOCHROME2",
      "PixelBandwidth": 2290.0,
      "PixelRepresentation": 0,
      "PixelSpacing": [2.0, 2.0],
      "ProtocolName": "func_task-bars",
      "RepetitionTime": 1490.0,
      "RescaleIntercept": -4096.0,
      "RescaleSlope": 2.0,
      "RescaleType": "US",
      "Rows": 832,
      "SAR": 0.03906561834531,
      "SamplesPerPixel": 1,
      "ScanOptions": "FS",
      "ScanningSequence": "EP",
      "SequenceName": "epfid2d1_104",
      "SequenceVariant": [
        "SK",
        "SS"
],
      "SeriesDescription": "func_task-bars",
      "SeriesNumber": 17,
      "SeriesTime": "182846.156000",
      "SliceLocation": -37.195981985403,
      "SliceThickness": 2.0,
      "SmallestImagePixelValue": 0,
      "SoftwareVersions": "syngo MR E11",
      "SpacingBetweenSlices": 1.9999999996845,
      "SpecificCharacterSet": "ISO_IR 100",
      "StudyID": "1",
      "StudyTime": "181326.548000",
      "TransmitCoilName": "Body",
      "VariableFlipAngleFlag": "N",
      "WindowCenterWidthExplanation": "Algo1",
      "dBdt": 0.0},
    "slices": {}
  },
  "time": {
    "samples": {
      "AcquisitionNumber": [1, 2, 3, 4, 5, 6, 7, 8, 9, 10, 11, 12, 13, 14, 15, 16, 17, 18, 19, 20, 21, 22, 23, 24, 25, 26, 27, 28, 29, 30, 31, 32, 33, 34, 35, 36, 37, 38, 39, 40, 41, 42, 43, 44, 45, 46, 47, 48, 49, 50, 51, 52, 53, 54, 55, 56, 57, 58, 59, 60, 61, 62, 63, 64, 65, 66, 67, 68, 69, 70, 71, 72, 73, 74, 75, 76, 77, 78, 79, 80, 81, 82, 83, 84, 85, 86, 87, 88, 89, 90, 91, 92, 93, 94, 95, 96, 97, 98, 99, 100, 101, 102, 103, 104, 105, 106, 107, 108, 109, 110, 111, 112, 113, 114, 115, 116, 117, 118, 119, 120, 121, 122, 123, 124, 125, 126, 127, 128, 129, 130, 131, 132, 133, 134, 135, 136, 137, 138, 139, 140, 141, 142, 143, 144, 145, 146, 147, 148, 149, 150, 151, 152, 153, 154, 155, 156, 157, 158, 159, 160, 161, 162, 163, 164, 165, 166, 167, 168, 169, 170, 171, 172, 173, 174, 175, 176, 177, 178, 179, 180, 181, 182, 183, 184, 185, 186, 187, 188, 189, 190, 191, 192, 193, 194, 195, 196, 197, 198, 199, 200, 201, 202],
      "AcquisitionTime": ["182722.227500", "182723.717500", "182725.207500", "182726.697500", "182728.187500", "182729.677500", "182731.167500", "182732.657500", "182734.147500", "182735.637500", "182737.127500", "182738.617500", "182740.107500", "182741.597500", "182743.087500", "182744.577500", "182746.067500", "182747.557500", "182749.047500", "182750.537500", "182752.027500", "182753.517500", "182755.007500", "182756.497500", "182757.987500", "182759.477500", "182800.967500", "182802.457500", "182803.947500", "182805.437500", "182806.927500", "182808.417500", "182809.907500", "182811.397500", "182812.887500", "182814.377500", "182815.867500", "182817.357500", "182818.847500", "182820.337500", "182821.827500", "182823.317500", "182824.807500", "182826.297500", "182827.787500", "182829.277500", "182830.767500", "182832.257500", "182833.747500", "182835.237500", "182836.727500", "182838.217500", "182839.707500", "182841.197500", "182842.687500", "182844.177500", "182845.667500", "182847.157500", "182848.647500", "182850.137500", "182851.627500", "182853.117500", "182854.607500", "182856.097500", "182857.587500", "182859.077500", "182900.567500", "182902.057500", "182903.547500", "182905.037500", "182906.527500", "182908.017500", "182909.507500", "182910.997500", "182912.487500", "182913.977500", "182915.467500", "182916.957500", "182918.447500", "182919.937500", "182921.427500", "182922.917500", "182924.407500", "182925.897500", "182927.387500", "182928.877500", "182930.367500", "182931.857500", "182933.347500", "182934.837500", "182936.327500", "182937.817500", "182939.307500", "182940.797500", "182942.287500", "182943.777500", "182945.267500", "182946.757500", "182948.247500", "182949.737500", "182951.227500", "182952.717500", "182954.207500", "182955.697500", "182957.187500", "182958.677500", "183000.167500", "183001.657500", "183003.147500", "183004.637500", "183006.127500", "183007.617500", "183009.107500", "183010.597500", "183012.087500", "183013.577500", "183015.067500", "183016.557500", "183018.047500", "183019.537500", "183021.027500", "183022.517500", "183024.007500", "183025.497500", "183026.987500", "183028.477500", "183029.967500", "183031.457500", "183032.947500", "183034.437500", "183035.927500", "183037.417500", "183038.907500", "183040.397500", "183041.887500", "183043.377500", "183044.867500", "183046.357500", "183047.847500", "183049.337500", "183050.827500", "183052.317500", "183053.807500", "183055.297500", "183056.787500", "183058.277500", "183059.767500", "183101.257500", "183102.747500", "183104.237500", "183105.727500", "183107.217500", "183108.707500", "183110.197500", "183111.687500", "183113.177500", "183114.667500", "183116.157500", "183117.647500", "183119.137500", "183120.627500", "183122.117500", "183123.607500", "183125.097500", "183126.587500", "183128.077500", "183129.567500", "183131.057500", "183132.547500", "183134.037500", "183135.527500", "183137.017500", "183138.507500", "183139.997500", "183141.487500", "183142.977500", "183144.467500", "183145.957500", "183147.447500", "183148.937500", "183150.427500", "183151.917500", "183153.407500", "183154.897500", "183156.387500", "183157.877500", "183159.367500", "183200.857500", "183202.347500", "183203.837500", "183205.327500", "183206.817500", "183208.307500", "183209.797500", "183211.287500", "183212.777500", "183214.267500", "183215.757500", "183217.247500", "183218.737500", "183220.227500", "183221.717500"],
      "ContentTime": ["182846.158000", "182846.276000", "182846.278000", "182846.281000", "182846.319000", "182846.322000", "182846.324000", "182846.327000", "182846.329000", "182846.332000", "182846.335000", "182846.337000", "182846.340000", "182846.342000", "182846.345000", "182846.347000", "182846.350000", "182846.353000", "182846.355000", "182846.358000", "182846.360000", "182846.363000", "182846.365000", "182846.368000", "182846.371000", "182846.373000", "182846.376000", "182846.378000", "182846.381000", "182846.383000", "182906.093000", "182906.095000", "182906.098000", "182906.100000", "182906.103000", "182906.106000", "182906.108000", "182906.111000", "182906.113000", "182906.116000", "182906.119000", "182906.121000", "182906.124000", "182906.130000", "182906.133000", "182906.135000", "182906.138000", "182906.141000", "182906.143000", "182906.146000", "182906.149000", "182926.120000", "182926.123000", "182926.125000", "182926.128000", "182926.131000", "182926.133000", "182926.136000", "182926.138000", "182926.141000", "182926.144000", "182926.146000", "182926.149000", "182926.151000", "182926.154000", "182926.156000", "182926.159000", "182926.162000", "182926.165000", "182926.167000", "182926.170000", "182946.091000", "182946.094000", "182946.097000", "182946.099000", "182946.102000", "182946.105000", "182946.107000", "182946.110000", "182946.113000", "182946.115000", "182946.118000", "182946.120000", "182946.123000", "182946.125000", "182946.128000", "182946.130000", "182946.136000", "182946.139000", "182946.142000", "182946.144000", "183026.134000", "183026.137000", "183026.140000", "183026.142000", "183026.145000", "183026.148000", "183026.161000", "183026.163000", "183026.166000", "183026.169000", "183026.171000", "183026.174000", "183026.176000", "183026.179000", "183026.182000", "183026.184000", "183026.187000", "183026.190000", "183026.192000", "183026.195000", "183026.197000", "183026.200000", "183026.203000", "183026.205000", "183026.208000", "183026.211000", "183026.213000", "183026.216000", "183026.220000", "183026.223000", "183026.225000", "183106.236000", "183106.239000", "183106.241000", "183106.244000", "183106.247000", "183106.250000", "183106.253000", "183106.256000", "183106.258000", "183106.261000", "183106.263000", "183106.266000", "183106.268000", "183106.271000", "183106.274000", "183106.276000", "183106.279000", "183106.281000", "183106.284000", "183106.287000", "183106.289000", "183106.292000", "183106.294000", "183106.297000", "183106.299000", "183106.302000", "183106.305000", "183146.122000", "183146.125000", "183146.127000", "183146.130000", "183146.133000", "183146.135000", "183146.138000", "183146.140000", "183146.143000", "183146.146000", "183146.148000", "183146.151000", "183146.153000", "183146.156000", "183146.186000", "183146.188000", "183146.191000", "183146.193000", "183146.196000", "183146.198000", "183146.201000", "183146.204000", "183146.206000", "183146.209000", "183146.211000", "183146.214000", "183146.216000", "183224.026000", "183224.029000", "183224.032000", "183224.034000", "183224.037000", "183224.040000", "183224.042000", "183224.045000", "183224.048000", "183224.050000", "183224.053000", "183224.056000", "183224.058000", "183224.061000", "183224.063000", "183224.066000", "183224.069000", "183224.071000", "183224.074000", "183224.076000", "183224.079000", "183224.082000", "183224.084000", "183224.087000", "183224.089000", "183224.092000"],
      "InstanceCreationTime": ["182846.158000", "182846.276000", "182846.278000", "182846.281000", "182846.319000", "182846.322000", "182846.324000", "182846.327000", "182846.329000", "182846.332000", "182846.335000", "182846.337000", "182846.340000", "182846.342000", "182846.345000", "182846.347000", "182846.350000", "182846.353000", "182846.355000", "182846.358000", "182846.360000", "182846.363000", "182846.365000", "182846.368000", "182846.371000", "182846.373000", "182846.376000", "182846.378000", "182846.381000", "182846.383000", "182906.093000", "182906.095000", "182906.098000", "182906.100000", "182906.103000", "182906.106000", "182906.108000", "182906.111000", "182906.113000", "182906.116000", "182906.119000", "182906.121000", "182906.124000", "182906.130000", "182906.133000", "182906.135000", "182906.138000", "182906.141000", "182906.143000", "182906.146000", "182906.149000", "182926.120000", "182926.123000", "182926.125000", "182926.128000", "182926.131000", "182926.133000", "182926.136000", "182926.138000", "182926.141000", "182926.144000", "182926.146000", "182926.149000", "182926.151000", "182926.154000", "182926.156000", "182926.159000", "182926.162000", "182926.165000", "182926.167000", "182926.170000", "182946.091000", "182946.094000", "182946.097000", "182946.099000", "182946.102000", "182946.105000", "182946.107000", "182946.110000", "182946.113000", "182946.115000", "182946.118000", "182946.120000", "182946.123000", "182946.125000", "182946.128000", "182946.130000", "182946.136000", "182946.139000", "182946.142000", "182946.144000", "183026.134000", "183026.137000", "183026.140000", "183026.142000", "183026.145000", "183026.148000", "183026.161000", "183026.163000", "183026.166000", "183026.169000", "183026.171000", "183026.174000", "183026.176000", "183026.179000", "183026.182000", "183026.184000", "183026.187000", "183026.190000", "183026.192000", "183026.195000", "183026.197000", "183026.200000", "183026.203000", "183026.205000", "183026.208000", "183026.211000", "183026.213000", "183026.216000", "183026.220000", "183026.223000", "183026.225000", "183106.236000", "183106.239000", "183106.241000", "183106.244000", "183106.247000", "183106.250000", "183106.253000", "183106.256000", "183106.258000", "183106.261000", "183106.263000", "183106.266000", "183106.268000", "183106.271000", "183106.274000", "183106.276000", "183106.279000", "183106.281000", "183106.284000", "183106.287000", "183106.289000", "183106.292000", "183106.294000", "183106.297000", "183106.299000", "183106.302000", "183106.305000", "183146.122000", "183146.125000", "183146.127000", "183146.130000", "183146.133000", "183146.135000", "183146.138000", "183146.140000", "183146.143000", "183146.146000", "183146.148000", "183146.151000", "183146.153000", "183146.156000", "183146.186000", "183146.188000", "183146.191000", "183146.193000", "183146.196000", "183146.198000", "183146.201000", "183146.204000", "183146.206000", "183146.209000", "183146.211000", "183146.214000", "183146.216000", "183224.026000", "183224.029000", "183224.032000", "183224.034000", "183224.037000", "183224.040000", "183224.042000", "183224.045000", "183224.048000", "183224.050000", "183224.053000", "183224.056000", "183224.058000", "183224.061000", "183224.063000", "183224.066000", "183224.069000", "183224.071000", "183224.074000", "183224.076000", "183224.079000", "183224.082000", "183224.084000", "183224.087000", "183224.089000", "183224.092000"],
      "InstanceNumber": [1, 2, 3, 4, 5, 6, 7, 8, 9, 10, 11, 12, 13, 14, 15, 16, 17, 18, 19, 20, 21, 22, 23, 24, 25, 26, 27, 28, 29, 30, 31, 32, 33, 34, 35, 36, 37, 38, 39, 40, 41, 42, 43, 44, 45, 46, 47, 48, 49, 50, 51, 52, 53, 54, 55, 56, 57, 58, 59, 60, 61, 62, 63, 64, 65, 66, 67, 68, 69, 70, 71, 72, 73, 74, 75, 76, 77, 78, 79, 80, 81, 82, 83, 84, 85, 86, 87, 88, 89, 90, 91, 92, 93, 94, 95, 96, 97, 98, 99, 100, 101, 102, 103, 104, 105, 106, 107, 108, 109, 110, 111, 112, 113, 114, 115, 116, 117, 118, 119, 120, 121, 122, 123, 124, 125, 126, 127, 128, 129, 130, 131, 132, 133, 134, 135, 136, 137, 138, 139, 140, 141, 142, 143, 144, 145, 146, 147, 148, 149, 150, 151, 152, 153, 154, 155, 156, 157, 158, 159, 160, 161, 162, 163, 164, 165, 166, 167, 168, 169, 170, 171, 172, 173, 174, 175, 176, 177, 178, 179, 180, 181, 182, 183, 184, 185, 186, 187, 188, 189, 190, 191, 192, 193, 194, 195, 196, 197, 198, 199, 200, 201, 202],
      "WindowCenter": [4810.0, 4836.0, 4812.0, 4834.0, 4836.0, 4838.0, 4838.0, 4836.0, 4812.0, 4816.0, 4814.0, 4812.0, 4836.0, 4838.0, 4838.0, 4834.0, 4812.0, 4812.0, 4834.0, 4836.0, 4834.0, 4814.0, 4836.0, 4832.0, 4810.0, 4814.0, 4810.0, 4838.0, 4834.0, 4836.0, 4838.0, 4814.0, 4834.0, 4814.0, 4812.0, 4812.0, 4814.0, 4838.0, 4814.0, 4832.0, 4812.0, 4834.0, 4816.0, 4814.0, 4836.0, 4812.0, 4814.0, 4810.0, 4810.0, 4836.0, 4836.0, 4834.0, 4834.0, 4810.0, 4814.0, 4812.0, 4838.0, 4834.0, 4836.0, 4840.0, 4808.0, 4812.0, 4812.0, 4812.0, 4838.0, 4836.0, 4836.0, 4814.0, 4810.0, 4812.0, 4810.0, 4836.0, 4838.0, 4840.0, 4810.0, 4812.0, 4836.0, 4836.0, 4836.0, 4836.0, 4810.0, 4810.0, 4810.0, 4834.0, 4840.0, 4842.0, 4838.0, 4814.0, 4812.0, 4812.0, 4810.0, 4810.0, 4836.0, 4838.0, 4834.0, 4810.0, 4836.0, 4838.0, 4840.0, 4836.0, 4834.0, 4806.0, 4810.0, 4808.0, 4836.0, 4838.0, 4812.0, 4810.0, 4812.0, 4810.0, 4836.0, 4840.0, 4838.0, 4836.0, 4834.0, 4810.0, 4812.0, 4810.0, 4810.0, 4836.0, 4814.0, 4810.0, 4808.0, 4808.0, 4836.0, 4814.0, 4808.0, 4812.0, 4808.0, 4834.0, 4836.0, 4838.0, 4836.0, 4840.0, 4810.0, 4812.0, 4812.0, 4832.0, 4812.0, 4840.0, 4844.0, 4840.0, 4812.0, 4814.0, 4814.0, 4810.0, 4832.0, 4838.0, 4808.0, 4808.0, 4810.0, 4810.0, 4834.0, 4836.0, 4814.0, 4812.0, 4814.0, 4808.0, 4834.0, 4834.0, 4812.0, 4812.0, 4806.0, 4836.0, 4838.0, 4838.0, 4838.0, 4812.0, 4838.0, 4834.0, 4812.0, 4812.0, 4812.0, 4834.0, 4838.0, 4846.0, 4840.0, 4810.0, 4816.0, 4812.0, 4810.0, 4810.0, 4840.0, 4846.0, 4840.0, 4840.0, 4836.0, 4814.0, 4812.0, 4812.0, 4836.0, 4848.0, 4852.0, 4854.0, 4834.0, 4836.0, 4814.0, 4810.0, 4812.0, 4832.0, 4836.0, 4812.0],
      "WindowWidth": [18598.0, 18636.0, 18604.0, 18626.0, 18626.0, 18634.0, 18630.0, 18628.0, 18596.0, 18612.0, 18614.0, 18602.0, 18634.0, 18632.0, 18626.0, 18630.0, 18604.0, 18606.0, 18638.0, 18632.0, 18630.0, 18600.0, 18624.0, 18632.0, 18604.0, 18604.0, 18602.0, 18632.0, 18628.0, 18630.0, 18636.0, 18598.0, 18626.0, 18602.0, 18604.0, 18600.0, 18600.0, 18626.0, 18602.0, 18630.0, 18600.0, 18624.0, 18598.0, 18596.0, 18626.0, 18600.0, 18604.0, 18606.0, 18600.0, 18632.0, 18628.0, 18624.0, 18632.0, 18602.0, 18612.0, 18602.0, 18628.0, 18632.0, 18630.0, 18634.0, 18596.0, 18608.0, 18604.0, 18602.0, 18634.0, 18626.0, 18624.0, 18604.0, 18602.0, 18604.0, 18602.0, 18626.0, 18622.0, 18630.0, 18598.0, 18600.0, 18630.0, 18628.0, 18628.0, 18632.0, 18610.0, 18608.0, 18602.0, 18628.0, 18632.0, 18634.0, 18632.0, 18598.0, 18606.0, 18606.0, 18602.0, 18598.0, 18628.0, 18634.0, 18632.0, 18604.0, 18628.0, 18630.0, 18632.0, 18632.0, 18630.0, 18602.0, 18602.0, 18598.0, 18628.0, 18630.0, 18594.0, 18602.0, 18606.0, 18598.0, 18630.0, 18632.0, 18628.0, 18632.0, 18630.0, 18604.0, 18604.0, 18600.0, 18596.0, 18628.0, 18604.0, 18604.0, 18598.0, 18590.0, 18630.0, 18602.0, 18606.0, 18610.0, 18598.0, 18630.0, 18628.0, 18628.0, 18632.0, 18632.0, 18602.0, 18610.0, 18608.0, 18632.0, 18602.0, 18636.0, 18636.0, 18632.0, 18602.0, 18610.0, 18610.0, 18602.0, 18632.0, 18628.0, 18598.0, 18600.0, 18606.0, 18600.0, 18630.0, 18626.0, 18602.0, 18608.0, 18610.0, 18604.0, 18630.0, 18628.0, 18598.0, 18604.0, 18598.0, 18630.0, 18634.0, 18632.0, 18628.0, 18594.0, 18634.0, 18630.0, 18606.0, 18610.0, 18606.0, 18630.0, 18634.0, 18638.0, 18632.0, 18602.0, 18616.0, 18612.0, 18612.0, 18602.0, 18634.0, 18638.0, 18628.0, 18632.0, 18638.0, 18608.0, 18596.0, 18608.0, 18628.0, 18642.0, 18642.0, 18646.0, 18626.0, 18634.0, 18612.0, 18610.0, 18606.0, 18630.0, 18632.0, 18606.0]
    },
    "slices": {}
  }
}