{
  "AcquisitionMatrixPE": 104,
  "AcquisitionNumber": 1,
  "AcquisitionTime": "18:21:56.482500",
  "BandwidthPerPixelPhaseEncode": 17.17,
  "BaseResolution": 104,
  "BodyPartExamined": "BRAIN",
  "CoilString": "HC1-7;NC1_2",
  "ConsistencyInfo": "N4_VE11C_LATEST_20160120",
  "ConversionSoftware": "dcm2niix",
  "ConversionSoftwareVersion": "v1.0.20190902",
  "DerivedVendorReportedEchoSpacing": 0.000560011,
  "DeviceSerialNumber": "167006",
  "DwellTime": 2.1e-06,
  "EchoTime": 0.037,
  "EchoTrainLength": 104,
  "EffectiveEchoSpacing": 0.000560011,
  "FlipAngle": 52,
  "ImageComments": "Unaliased_MB4_PE3_LB",
  "ImageOrientationPatientDICOM": [0.993579, 0.104819, 0.042584, -0.0783708, 0.909095, -0.40915],
  "ImageType": [
    "ORIGINAL",
    "PRIMARY",
    "P",
    "MB",
    "ND",
    "MOSAIC"
],
  "ImagingFrequency": 123.259,
  "InPlanePhaseEncodingDirectionDICOM": "COL",
  "InstitutionAddress": "Chemin_Queen-Mary_4565_Montreal_District_CA_H3W_1W5",
  "InstitutionName": "IUGM",
  "InstitutionalDepartmentName": "Department",
  "MRAcquisitionType": "2D",
  "MagneticFieldStrength": 3,
  "Manufacturer": "Siemens",
  "ManufacturersModelName": "Prisma_fit",
  "Modality": "MR",
  "MultibandAccelerationFactor": 4,
  "PartialFourier": 1,
  "PatientPosition": "HFS",
  "PercentPhaseFOV": 100,
  "PhaseEncodingDirection": "j",
  "PhaseEncodingSteps": 104,
  "PhaseResolution": 1,
  "PixelBandwidth": 2290,
  "ProcedureStepDescription": "localizers_retinotopy",
  "ProtocolName": "func_task-rings",
  "PulseSequenceDetails": "%CustomerSeq%_cmrr_mbep2d_bold",
  "ReceiveCoilActiveElements": "HC1-7;NC1,2",
  "ReceiveCoilName": "HeadNeck_64",
  "ReconMatrixPE": 104,
  "RepetitionTime": 1.49,
  "SAR": 0.0390656,
  "ScanOptions": "FS",
  "ScanningSequence": "EP",
  "SequenceName": "epfid2d1_104",
  "SequenceVariant": "SK_SS",
  "SeriesDescription": "func_task-rings",
  "SeriesNumber": 14,
  "ShimSetting": [633, -7209, -8832, 658, 68, -42, -12, 4],
  "SliceThickness": 2,
  "SliceTiming": [0, 0.785, 0.1, 0.8825, 0.1975, 0.98, 0.295, 1.08, 0.3925, 1.1775, 0.49, 1.275, 0.59, 1.3725, 0.6875, 0, 0.785, 0.1, 0.8825, 0.1975, 0.98, 0.295, 1.08, 0.3925, 1.1775, 0.49, 1.275, 0.59, 1.3725, 0.6875, 0, 0.785, 0.1, 0.8825, 0.1975, 0.98, 0.295, 1.08, 0.3925, 1.1775, 0.49, 1.275, 0.59, 1.3725, 0.6875, 0, 0.785, 0.1, 0.8825, 0.1975, 0.98, 0.295, 1.08, 0.3925, 1.1775, 0.49, 1.275, 0.59, 1.3725, 0.6875],
  "SoftwareVersions": "syngo_MR_E11",
  "SpacingBetweenSlices": 2,
  "StationName": "MRC35049",
  "TaskName": "rings",
  "TotalReadoutTime": 0.0576811,
  "TxRefAmp": 249.322,
  "WipMemBlock": "a480cdae-4a25-49bc-8b31-c9a0919e6909||Sequence: R016 ve11c/master r/e634e98; Dec 19 2017 11:00:25 by eja",
  "dcmmeta_affine": [
    [-1.9871582984924316, -0.15674161911010742, 0.16319958865642548, 109.32077026367188],
    [-0.20963887870311737, 1.818190336227417, -0.8063716888427734, -44.69518280029297],
    [0.08516795933246613, 0.8183005452156067, 1.8229455947875977, -70.3663330078125],
    [0.0, 0.0, 0.0, 1.0]
],
  "dcmmeta_reorient_transform": [
    [0.0, -1.0, 0.0, 103.0],
    [1.0, 0.0, 0.0, 0.0],
    [0.0, 0.0, 1.0, 0.0],
    [0.0, 0.0, 0.0, 1.0]
],
  "dcmmeta_shape": [104, 104, 60, 202],
  "dcmmeta_slice_dim": 2,
  "dcmmeta_version": 0.6,
  "global": {
    "const": {
      "AcquisitionMatrix": [104, 0, 0, 104],
      "AngioFlag": "N",
      "BitsAllocated": 16,
      "BitsStored": 16,
      "BodyPartExamined": "BRAIN",
      "Columns": 832,
      "EchoNumbers": 1,
      "EchoTime": 37.0,
      "EchoTrainLength": 104,
      "FlipAngle": 52.0,
      "HighBit": 15,
      "ImageOrientationPatient": [0.99357913112743, 0.10481943976673, 0.04258397861936, -0.0783708101231, 0.90909518846482, -0.4091502834299],
      "ImagePositionPatient": [-759.44804258094, -880.70827638323, 280.77889428585],
      "ImageType": [
        "ORIGINAL",
        "PRIMARY",
        "P",
        "MB",
        "ND",
        "MOSAIC"
],
      "ImagedNucleus": "1H",
      "ImagingFrequency": 123.258981,
      "InPlanePhaseEncodingDirection": "COL",
      "LargestImagePixelValue": 4095,
      "MRAcquisitionType": "2D",
      "MagneticFieldStrength": 3.0,
      "Manufacturer": "SIEMENS",
      "ManufacturerModelName": "Prisma_fit",
      "Modality": "MR",
      "NumberOfAverages": 1.0,
      "NumberOfPhaseEncodingSteps": 104,
      "PercentPhaseFieldOfView": 100.0,
      "PercentSampling": 100.0,
      "PerformedProcedureStepStartTime": "181326.624000",
      "PhotometricInterpretation": "MONOCHROME2",
      "PixelBandwidth": 2290.0,
      "PixelRepresentation": 0,
      "PixelSpacing": [2.0, 2.0],
      "ProtocolName": "func_task-rings",
      "RepetitionTime": 1490.0,
      "RescaleIntercept": -4096.0,
      "RescaleSlope": 2.0,
      "RescaleType": "US",
      "Rows": 832,
      "SAR": 0.03906561834531,
      "SamplesPerPixel": 1,
      "ScanOptions": "FS",
      "ScanningSequence": "EP",
      "SequenceName": "epfid2d1_104",
      "SequenceVariant": [
        "SK",
        "SS"
],
      "SeriesDescription": "func_task-rings",
      "SeriesNumber": 14,
      "SeriesTime": "182318.622000",
      "SliceLocation": -37.195981985403,
      "SliceThickness": 2.0,
      "SmallestImagePixelValue": 0,
      "SoftwareVersions": "syngo MR E11",
      "SpacingBetweenSlices": 1.9999999996845,
      "SpecificCharacterSet": "ISO_IR 100",
      "StudyID": "1",
      "StudyTime": "181326.548000",
      "TransmitCoilName": "Body",
      "VariableFlipAngleFlag": "N",
      "WindowCenterWidthExplanation": "Algo1",
      "dBdt": 0.0},
    "slices": {}
  },
  "time": {
    "samples": {
      "AcquisitionNumber": [1, 2, 3, 4, 5, 6, 7, 8, 9, 10, 11, 12, 13, 14, 15, 16, 17, 18, 19, 20, 21, 22, 23, 24, 25, 26, 27, 28, 29, 30, 31, 32, 33, 34, 35, 36, 37, 38, 39, 40, 41, 42, 43, 44, 45, 46, 47, 48, 49, 50, 51, 52, 53, 54, 55, 56, 57, 58, 59, 60, 61, 62, 63, 64, 65, 66, 67, 68, 69, 70, 71, 72, 73, 74, 75, 76, 77, 78, 79, 80, 81, 82, 83, 84, 85, 86, 87, 88, 89, 90, 91, 92, 93, 94, 95, 96, 97, 98, 99, 100, 101, 102, 103, 104, 105, 106, 107, 108, 109, 110, 111, 112, 113, 114, 115, 116, 117, 118, 119, 120, 121, 122, 123, 124, 125, 126, 127, 128, 129, 130, 131, 132, 133, 134, 135, 136, 137, 138, 139, 140, 141, 142, 143, 144, 145, 146, 147, 148, 149, 150, 151, 152, 153, 154, 155, 156, 157, 158, 159, 160, 161, 162, 163, 164, 165, 166, 167, 168, 169, 170, 171, 172, 173, 174, 175, 176, 177, 178, 179, 180, 181, 182, 183, 184, 185, 186, 187, 188, 189, 190, 191, 192, 193, 194, 195, 196, 197, 198, 199, 200, 201, 202],
      "AcquisitionTime": ["182156.482500", "182157.972500", "182159.462500", "182200.952500", "182202.442500", "182203.932500", "182205.422500", "182206.912500", "182208.402500", "182209.892500", "182211.382500", "182212.872500", "182214.362500", "182215.852500", "182217.342500", "182218.832500", "182220.322500", "182221.812500", "182223.302500", "182224.792500", "182226.282500", "182227.772500", "182229.262500", "182230.752500", "182232.242500", "182233.732500", "182235.222500", "182236.712500", "182238.202500", "182239.692500", "182241.182500", "182242.672500", "182244.162500", "182245.652500", "182247.142500", "182248.632500", "182250.122500", "182251.612500", "182253.102500", "182254.592500", "182256.082500", "182257.572500", "182259.062500", "182300.552500", "182302.042500", "182303.532500", "182305.022500", "182306.512500", "182308.002500", "182309.492500", "182310.982500", "182312.472500", "182313.962500", "182315.452500", "182316.942500", "182318.432500", "182319.922500", "182321.412500", "182322.902500", "182324.392500", "182325.882500", "182327.372500", "182328.862500", "182330.352500", "182331.842500", "182333.332500", "182334.822500", "182336.312500", "182337.802500", "182339.292500", "182340.782500", "182342.272500", "182343.762500", "182345.252500", "182346.742500", "182348.232500", "182349.722500", "182351.212500", "182352.702500", "182354.192500", "182355.682500", "182357.172500", "182358.662500", "182400.152500", "182401.642500", "182403.132500", "182404.622500", "182406.112500", "182407.602500", "182409.092500", "182410.582500", "182412.072500", "182413.562500", "182415.052500", "182416.542500", "182418.032500", "182419.522500", "182421.012500", "182422.502500", "182423.992500", "182425.482500", "182426.972500", "182428.462500", "182429.952500", "182431.442500", "182432.932500", "182434.422500", "182435.912500", "182437.402500", "182438.892500", "182440.382500", "182441.872500", "182443.362500", "182444.852500", "182446.342500", "182447.832500", "182449.322500", "182450.812500", "182452.302500", "182453.792500", "182455.282500", "182456.772500", "182458.262500", "182459.752500", "182501.242500", "182502.732500", "182504.222500", "182505.712500", "182507.202500", "182508.692500", "182510.182500", "182511.672500", "182513.162500", "182514.652500", "182516.142500", "182517.632500", "182519.122500", "182520.612500", "182522.102500", "182523.592500", "182525.082500", "182526.572500", "182528.062500", "182529.552500", "182531.042500", "182532.532500", "182534.022500", "182535.512500", "182537.002500", "182538.492500", "182539.982500", "182541.472500", "182542.962500", "182544.452500", "182545.942500", "182547.432500", "182548.922500", "182550.412500", "182551.902500", "182553.392500", "182554.882500", "182556.372500", "182557.862500", "182559.352500", "182600.842500", "182602.332500", "182603.822500", "182605.312500", "182606.802500", "182608.292500", "182609.782500", "182611.272500", "182612.762500", "182614.252500", "182615.742500", "182617.232500", "182618.722500", "182620.212500", "182621.702500", "182623.192500", "182624.682500", "182626.172500", "182627.662500", "182629.152500", "182630.642500", "182632.132500", "182633.622500", "182635.112500", "182636.602500", "182638.092500", "182639.582500", "182641.072500", "182642.562500", "182644.052500", "182645.542500", "182647.032500", "182648.522500", "182650.012500", "182651.502500", "182652.992500", "182654.482500", "182655.972500"],
      "ContentTime": ["182318.624000", "182318.634000", "182318.636000", "182318.639000", "182318.642000", "182318.644000", "182318.647000", "182318.650000", "182318.652000", "182318.655000", "182318.658000", "182318.660000", "182318.663000", "182318.665000", "182318.668000", "182318.670000", "182318.673000", "182318.676000", "182318.678000", "182318.681000", "182318.683000", "182318.686000", "182318.689000", "182318.691000", "182318.694000", "182338.605000", "182338.608000", "182338.611000", "182338.680000", "182338.683000", "182338.685000", "182338.688000", "182338.691000", "182338.693000", "182338.696000", "182338.698000", "182338.701000", "182338.704000", "182338.706000", "182338.709000", "182338.711000", "182338.714000", "182338.716000", "182338.719000", "182338.722000", "182358.605000", "182358.608000", "182358.613000", "182358.616000", "182358.618000", "182358.621000", "182358.624000", "182358.626000", "182358.629000", "182358.632000", "182358.635000", "182358.637000", "182358.640000", "182358.643000", "182358.646000", "182358.648000", "182358.651000", "182358.654000", "182358.656000", "182358.659000", "182358.661000", "182418.592000", "182418.594000", "182418.597000", "182418.600000", "182418.602000", "182418.605000", "182418.607000", "182418.610000", "182418.613000", "182418.615000", "182418.618000", "182418.620000", "182418.623000", "182418.625000", "182418.628000", "182418.630000", "182418.633000", "182418.636000", "182418.638000", "182418.641000", "182438.602000", "182438.605000", "182438.607000", "182438.610000", "182438.613000", "182438.615000", "182438.618000", "182438.620000", "182438.623000", "182438.626000", "182438.629000", "182438.631000", "182438.634000", "182438.636000", "182438.639000", "182438.642000", "182438.644000", "182438.647000", "182438.649000", "182438.652000", "182518.633000", "182518.636000", "182518.638000", "182518.641000", "182518.644000", "182518.646000", "182518.649000", "182518.651000", "182518.654000", "182518.657000", "182518.659000", "182518.662000", "182518.665000", "182518.668000", "182518.670000", "182518.673000", "182518.676000", "182518.678000", "182518.681000", "182518.684000", "182518.686000", "182518.689000", "182518.691000", "182518.694000", "182518.696000", "182518.699000", "182518.702000", "182518.704000", "182518.707000", "182558.630000", "182558.633000", "182558.636000", "182558.638000", "182558.641000", "182558.643000", "182558.646000", "182558.649000", "182558.651000", "182558.654000", "182558.656000", "182558.659000", "182558.662000", "182558.664000", "182558.667000", "182558.669000", "182558.672000", "182558.675000", "182558.677000", "182558.680000", "182558.682000", "182558.685000", "182558.687000", "182558.690000", "182558.693000", "182558.695000", "182558.698000", "182638.615000", "182638.618000", "182638.621000", "182638.623000", "182638.626000", "182638.629000", "182638.631000", "182638.634000", "182638.637000", "182638.639000", "182638.642000", "182638.645000", "182638.647000", "182638.650000", "182638.652000", "182638.655000", "182638.658000", "182638.660000", "182638.663000", "182638.665000", "182638.668000", "182638.670000", "182638.673000", "182638.676000", "182638.678000", "182638.681000", "182638.684000", "182657.872000", "182657.875000", "182657.877000", "182657.880000", "182657.883000", "182657.885000", "182657.888000", "182657.890000", "182657.893000", "182657.896000", "182657.898000", "182657.901000", "182657.904000"],
      "InstanceCreationTime": ["182318.624000", "182318.634000", "182318.636000", "182318.639000", "182318.642000", "182318.644000", "182318.647000", "182318.650000", "182318.652000", "182318.655000", "182318.658000", "182318.660000", "182318.663000", "182318.665000", "182318.668000", "182318.670000", "182318.673000", "182318.676000", "182318.678000", "182318.681000", "182318.683000", "182318.686000", "182318.689000", "182318.691000", "182318.694000", "182338.605000", "182338.608000", "182338.611000", "182338.680000", "182338.683000", "182338.685000", "182338.688000", "182338.691000", "182338.693000", "182338.696000", "182338.698000", "182338.701000", "182338.704000", "182338.706000", "182338.709000", "182338.711000", "182338.714000", "182338.716000", "182338.719000", "182338.722000", "182358.605000", "182358.608000", "182358.613000", "182358.616000", "182358.618000", "182358.621000", "182358.624000", "182358.626000", "182358.629000", "182358.632000", "182358.635000", "182358.637000", "182358.640000", "182358.643000", "182358.646000", "182358.648000", "182358.651000", "182358.654000", "182358.656000", "182358.659000", "182358.661000", "182418.592000", "182418.594000", "182418.597000", "182418.600000", "182418.602000", "182418.605000", "182418.607000", "182418.610000", "182418.613000", "182418.615000", "182418.618000", "182418.620000", "182418.623000", "182418.625000", "182418.628000", "182418.630000", "182418.633000", "182418.636000", "182418.638000", "182418.641000", "182438.602000", "182438.605000", "182438.607000", "182438.610000", "182438.613000", "182438.615000", "182438.618000", "182438.620000", "182438.623000", "182438.626000", "182438.629000", "182438.631000", "182438.634000", "182438.636000", "182438.639000", "182438.642000", "182438.644000", "182438.647000", "182438.649000", "182438.652000", "182518.633000", "182518.636000", "182518.638000", "182518.641000", "182518.644000", "182518.646000", "182518.649000", "182518.651000", "182518.654000", "182518.657000", "182518.659000", "182518.662000", "182518.665000", "182518.668000", "182518.670000", "182518.673000", "182518.676000", "182518.678000", "182518.681000", "182518.684000", "182518.686000", "182518.689000", "182518.691000", "182518.694000", "182518.696000", "182518.699000", "182518.702000", "182518.704000", "182518.707000", "182558.630000", "182558.633000", "182558.636000", "182558.638000", "182558.641000", "182558.643000", "182558.646000", "182558.649000", "182558.651000", "182558.654000", "182558.656000", "182558.659000", "182558.662000", "182558.664000", "182558.667000", "182558.669000", "182558.672000", "182558.675000", "182558.677000", "182558.680000", "182558.682000", "182558.685000", "182558.687000", "182558.690000", "182558.693000", "182558.695000", "182558.698000", "182638.615000", "182638.618000", "182638.621000", "182638.623000", "182638.626000", "182638.629000", "182638.631000", "182638.634000", "182638.637000", "182638.639000", "182638.642000", "182638.645000", "182638.647000", "182638.650000", "182638.652000", "182638.655000", "182638.658000", "182638.660000", "182638.663000", "182638.665000", "182638.668000", "182638.670000", "182638.673000", "182638.676000", "182638.678000", "182638.681000", "182638.684000", "182657.872000", "182657.875000", "182657.877000", "182657.880000", "182657.883000", "182657.885000", "182657.888000", "182657.890000", "182657.893000", "182657.896000", "182657.898000", "182657.901000", "182657.904000"],
      "InstanceNumber": [1, 2, 3, 4, 5, 6, 7, 8, 9, 10, 11, 12, 13, 14, 15, 16, 17, 18, 19, 20, 21, 22, 23, 24, 25, 26, 27, 28, 29, 30, 31, 32, 33, 34, 35, 36, 37, 38, 39, 40, 41, 42, 43, 44, 45, 46, 47, 48, 49, 50, 51, 52, 53, 54, 55, 56, 57, 58, 59, 60, 61, 62, 63, 64, 65, 66, 67, 68, 69, 70, 71, 72, 73, 74, 75, 76, 77, 78, 79, 80, 81, 82, 83, 84, 85, 86, 87, 88, 89, 90, 91, 92, 93, 94, 95, 96, 97, 98, 99, 100, 101, 102, 103, 104, 105, 106, 107, 108, 109, 110, 111, 112, 113, 114, 115, 116, 117, 118, 119, 120, 121, 122, 123, 124, 125, 126, 127, 128, 129, 130, 131, 132, 133, 134, 135, 136, 137, 138, 139, 140, 141, 142, 143, 144, 145, 146, 147, 148, 149, 150, 151, 152, 153, 154, 155, 156, 157, 158, 159, 160, 161, 162, 163, 164, 165, 166, 167, 168, 169, 170, 171, 172, 173, 174, 175, 176, 177, 178, 179, 180, 181, 182, 183, 184, 185, 186, 187, 188, 189, 190, 191, 192, 193, 194, 195, 196, 197, 198, 199, 200, 201, 202],
      "WindowCenter": [4810.0, 4808.0, 4808.0, 4836.0, 4812.0, 4810.0, 4810.0, 4812.0, 4812.0, 4808.0, 4810.0, 4834.0, 4808.0, 4810.0, 4810.0, 4808.0, 4812.0, 4836.0, 4808.0, 4812.0, 4810.0, 4832.0, 4836.0, 4808.0, 4814.0, 4810.0, 4814.0, 4808.0, 4810.0, 4836.0, 4838.0, 4808.0, 4812.0, 4814.0, 4810.0, 4832.0, 4810.0, 4812.0, 4812.0, 4810.0, 4810.0, 4834.0, 4812.0, 4810.0, 4810.0, 4808.0, 4810.0, 4810.0, 4810.0, 4812.0, 4812.0, 4812.0, 4810.0, 4812.0, 4810.0, 4808.0, 4812.0, 4836.0, 4810.0, 4808.0, 4810.0, 4808.0, 4812.0, 4810.0, 4812.0, 4812.0, 4812.0, 4812.0, 4814.0, 4808.0, 4810.0, 4804.0, 4810.0, 4810.0, 4814.0, 4810.0, 4816.0, 4814.0, 4810.0, 4832.0, 4836.0, 4810.0, 4808.0, 4810.0, 4814.0, 4814.0, 4808.0, 4812.0, 4808.0, 4808.0, 4808.0, 4810.0, 4810.0, 4808.0, 4806.0, 4808.0, 4808.0, 4812.0, 4814.0, 4810.0, 4806.0, 4808.0, 4834.0, 4810.0, 4812.0, 4814.0, 4808.0, 4832.0, 4810.0, 4812.0, 4808.0, 4812.0, 4812.0, 4808.0, 4834.0, 4808.0, 4810.0, 4808.0, 4810.0, 4810.0, 4810.0, 4810.0, 4812.0, 4812.0, 4816.0, 4814.0, 4810.0, 4810.0, 4836.0, 4834.0, 4812.0, 4810.0, 4814.0, 4812.0, 4816.0, 4814.0, 4812.0, 4806.0, 4842.0, 4838.0, 4836.0, 4808.0, 4812.0, 4814.0, 4814.0, 4814.0, 4808.0, 4838.0, 4848.0, 4846.0, 4838.0, 4810.0, 4814.0, 4818.0, 4812.0, 4812.0, 4814.0, 4834.0, 4812.0, 4836.0, 4810.0, 4836.0, 4814.0, 4814.0, 4816.0, 4832.0, 4834.0, 4838.0, 4838.0, 4836.0, 4834.0, 4810.0, 4832.0, 4832.0, 4836.0, 4840.0, 4838.0, 4838.0, 4814.0, 4836.0, 4834.0, 4840.0, 4840.0, 4838.0, 4810.0, 4816.0, 4812.0, 4808.0, 4836.0, 4840.0, 4842.0, 4836.0, 4836.0, 4816.0, 4814.0, 4834.0, 4838.0, 4840.0, 4834.0, 4836.0, 4836.0, 4812.0],
      "WindowWidth": [18606.0, 18602.0, 18596.0, 18630.0, 18598.0, 18594.0, 18596.0, 18608.0, 18606.0, 18600.0, 18596.0, 18632.0, 18598.0, 18604.0, 18600.0, 18596.0, 18600.0, 18626.0, 18596.0, 18608.0, 18602.0, 18632.0, 18630.0, 18596.0, 18600.0, 18608.0, 18610.0, 18598.0, 18594.0, 18628.0, 18634.0, 18596.0, 18604.0, 18614.0, 18604.0, 18626.0, 18594.0, 18598.0, 18598.0, 18602.0, 18596.0, 18632.0, 18604.0, 18602.0, 18604.0, 18604.0, 18596.0, 18598.0, 18598.0, 18598.0, 18596.0, 18600.0, 18600.0, 18598.0, 18594.0, 18594.0, 18600.0, 18632.0, 18598.0, 18600.0, 18608.0, 18602.0, 18598.0, 18596.0, 18594.0, 18590.0, 18596.0, 18608.0, 18606.0, 18602.0, 18598.0, 18592.0, 18596.0, 18594.0, 18596.0, 18604.0, 18610.0, 18614.0, 18604.0, 18632.0, 18630.0, 18592.0, 18590.0, 18604.0, 18618.0, 18614.0, 18604.0, 18600.0, 18592.0, 18594.0, 18606.0, 18608.0, 18606.0, 18598.0, 18596.0, 18592.0, 18600.0, 18606.0, 18610.0, 18604.0, 18594.0, 18590.0, 18624.0, 18600.0, 18608.0, 18610.0, 18600.0, 18626.0, 18596.0, 18602.0, 18606.0, 18606.0, 18600.0, 18594.0, 18628.0, 18600.0, 18598.0, 18596.0, 18596.0, 18598.0, 18604.0, 18598.0, 18598.0, 18602.0, 18614.0, 18610.0, 18606.0, 18596.0, 18628.0, 18628.0, 18596.0, 18602.0, 18606.0, 18610.0, 18616.0, 18610.0, 18606.0, 18594.0, 18634.0, 18632.0, 18632.0, 18598.0, 18604.0, 18612.0, 18608.0, 18610.0, 18602.0, 18632.0, 18646.0, 18644.0, 18628.0, 18602.0, 18610.0, 18616.0, 18610.0, 18608.0, 18602.0, 18628.0, 18602.0, 18632.0, 18598.0, 18624.0, 18602.0, 18608.0, 18612.0, 18632.0, 18632.0, 18626.0, 18626.0, 18626.0, 18642.0, 18616.0, 18634.0, 18632.0, 18628.0, 18628.0, 18630.0, 18640.0, 18616.0, 18638.0, 18630.0, 18630.0, 18638.0, 18632.0, 18604.0, 18614.0, 18616.0, 18602.0, 18630.0, 18632.0, 18632.0, 18630.0, 18638.0, 18612.0, 18614.0, 18632.0, 18628.0, 18634.0, 18626.0, 18630.0, 18638.0, 18616.0]
    },
    "slices": {}
  }
}