{
  "AcquisitionMatrixPE": 104,
  "AcquisitionNumber": 1,
  "AcquisitionTime": "18:16:24.857500",
  "BandwidthPerPixelPhaseEncode": 17.17,
  "BaseResolution": 104,
  "BodyPartExamined": "BRAIN",
  "CoilString": "HC1-7;NC1_2",
  "ConsistencyInfo": "N4_VE11C_LATEST_20160120",
  "ConversionSoftware": "dcm2niix",
  "ConversionSoftwareVersion": "v1.0.20190902",
  "DerivedVendorReportedEchoSpacing": 0.000560011,
  "DeviceSerialNumber": "167006",
  "DwellTime": 2.1e-06,
  "EchoTime": 0.037,
  "EchoTrainLength": 104,
  "EffectiveEchoSpacing": 0.000560011,
  "FlipAngle": 52,
  "ImageComments": "Unaliased_MB4_PE3_LB",
  "ImageOrientationPatientDICOM": [0.993579, 0.104819, 0.042584, -0.0783708, 0.909095, -0.40915],
  "ImageType": [
    "ORIGINAL",
    "PRIMARY",
    "P",
    "MB",
    "ND",
    "MOSAIC"
],
  "ImagingFrequency": 123.259,
  "InPlanePhaseEncodingDirectionDICOM": "COL",
  "InstitutionAddress": "Chemin_Queen-Mary_4565_Montreal_District_CA_H3W_1W5",
  "InstitutionName": "IUGM",
  "InstitutionalDepartmentName": "Department",
  "MRAcquisitionType": "2D",
  "MagneticFieldStrength": 3,
  "Manufacturer": "Siemens",
  "ManufacturersModelName": "Prisma_fit",
  "Modality": "MR",
  "MultibandAccelerationFactor": 4,
  "PartialFourier": 1,
  "PatientPosition": "HFS",
  "PercentPhaseFOV": 100,
  "PhaseEncodingDirection": "j",
  "PhaseEncodingSteps": 104,
  "PhaseResolution": 1,
  "PixelBandwidth": 2290,
  "ProcedureStepDescription": "localizers_retinotopy",
  "ProtocolName": "func_task-wedges",
  "PulseSequenceDetails": "%CustomerSeq%_cmrr_mbep2d_bold",
  "ReceiveCoilActiveElements": "HC1-7;NC1,2",
  "ReceiveCoilName": "HeadNeck_64",
  "ReconMatrixPE": 104,
  "RepetitionTime": 1.49,
  "SAR": 0.0390656,
  "ScanOptions": "FS",
  "ScanningSequence": "EP",
  "SequenceName": "epfid2d1_104",
  "SequenceVariant": "SK_SS",
  "SeriesDescription": "func_task-wedges",
  "SeriesNumber": 11,
  "ShimSetting": [633, -7209, -8832, 658, 68, -42, -12, 4],
  "SliceThickness": 2,
  "SliceTiming": [0, 0.785, 0.0975, 0.8825, 0.195, 0.98, 0.295, 1.0775, 0.3925, 1.175, 0.49, 1.275, 0.5875, 1.3725, 0.685, 0, 0.785, 0.0975, 0.8825, 0.195, 0.98, 0.295, 1.0775, 0.3925, 1.175, 0.49, 1.275, 0.5875, 1.3725, 0.685, 0, 0.785, 0.0975, 0.8825, 0.195, 0.98, 0.295, 1.0775, 0.3925, 1.175, 0.49, 1.275, 0.5875, 1.3725, 0.685, 0, 0.785, 0.0975, 0.8825, 0.195, 0.98, 0.295, 1.0775, 0.3925, 1.175, 0.49, 1.275, 0.5875, 1.3725, 0.685],
  "SoftwareVersions": "syngo_MR_E11",
  "SpacingBetweenSlices": 2,
  "StationName": "MRC35049",
  "TaskName": "wedges",
  "TotalReadoutTime": 0.0576811,
  "TxRefAmp": 249.322,
  "WipMemBlock": "eff527b1-0e11-4455-b2d8-7e567c7cc1d8||Sequence: R016 ve11c/master r/e634e98; Dec 19 2017 11:00:25 by eja",
  "dcmmeta_affine": [
    [-1.9871582984924316, -0.15674161911010742, 0.16319958865642548, 109.32077026367188],
    [-0.20963887870311737, 1.818190336227417, -0.8063716888427734, -44.69518280029297],
    [0.08516795933246613, 0.8183005452156067, 1.8229455947875977, -70.3663330078125],
    [0.0, 0.0, 0.0, 1.0]
],
  "dcmmeta_reorient_transform": [
    [0.0, -1.0, 0.0, 103.0],
    [1.0, 0.0, 0.0, 0.0],
    [0.0, 0.0, 1.0, 0.0],
    [0.0, 0.0, 0.0, 1.0]
],
  "dcmmeta_shape": [104, 104, 60, 202],
  "dcmmeta_slice_dim": 2,
  "dcmmeta_version": 0.6,
  "global": {
    "const": {
      "AcquisitionMatrix": [104, 0, 0, 104],
      "AngioFlag": "N",
      "BitsAllocated": 16,
      "BitsStored": 16,
      "BodyPartExamined": "BRAIN",
      "Columns": 832,
      "EchoNumbers": 1,
      "EchoTime": 37.0,
      "EchoTrainLength": 104,
      "FlipAngle": 52.0,
      "HighBit": 15,
      "ImageOrientationPatient": [0.99357913112743, 0.10481943976673, 0.04258397861936, -0.0783708101231, 0.90909518846482, -0.4091502834299],
      "ImagePositionPatient": [-759.44804258094, -880.70827638323, 280.77889428585],
      "ImageType": [
        "ORIGINAL",
        "PRIMARY",
        "P",
        "MB",
        "ND",
        "MOSAIC"
],
      "ImagedNucleus": "1H",
      "ImagingFrequency": 123.258979,
      "InPlanePhaseEncodingDirection": "COL",
      "LargestImagePixelValue": 4095,
      "MRAcquisitionType": "2D",
      "MagneticFieldStrength": 3.0,
      "Manufacturer": "SIEMENS",
      "ManufacturerModelName": "Prisma_fit",
      "Modality": "MR",
      "NumberOfAverages": 1.0,
      "NumberOfPhaseEncodingSteps": 104,
      "PercentPhaseFieldOfView": 100.0,
      "PercentSampling": 100.0,
      "PerformedProcedureStepStartTime": "181326.624000",
      "PhotometricInterpretation": "MONOCHROME2",
      "PixelBandwidth": 2290.0,
      "PixelRepresentation": 0,
      "PixelSpacing": [2.0, 2.0],
      "ProtocolName": "func_task-wedges",
      "RepetitionTime": 1490.0,
      "RescaleIntercept": -4096.0,
      "RescaleSlope": 2.0,
      "RescaleType": "US",
      "Rows": 832,
      "SAR": 0.03906561834531,
      "SamplesPerPixel": 1,
      "ScanOptions": "FS",
      "ScanningSequence": "EP",
      "SequenceName": "epfid2d1_104",
      "SequenceVariant": [
        "SK",
        "SS"
],
      "SeriesDescription": "func_task-wedges",
      "SeriesNumber": 11,
      "SeriesTime": "181742.416000",
      "SliceLocation": -37.195981985403,
      "SliceThickness": 2.0,
      "SmallestImagePixelValue": 0,
      "SoftwareVersions": "syngo MR E11",
      "SpacingBetweenSlices": 1.9999999996845,
      "SpecificCharacterSet": "ISO_IR 100",
      "StudyID": "1",
      "StudyTime": "181326.548000",
      "TransmitCoilName": "Body",
      "VariableFlipAngleFlag": "N",
      "WindowCenterWidthExplanation": "Algo1",
      "dBdt": 0.0},
    "slices": {}
  },
  "time": {
    "samples": {
      "AcquisitionNumber": [1, 2, 3, 4, 5, 6, 7, 8, 9, 10, 11, 12, 13, 14, 15, 16, 17, 18, 19, 20, 21, 22, 23, 24, 25, 26, 27, 28, 29, 30, 31, 32, 33, 34, 35, 36, 37, 38, 39, 40, 41, 42, 43, 44, 45, 46, 47, 48, 49, 50, 51, 52, 53, 54, 55, 56, 57, 58, 59, 60, 61, 62, 63, 64, 65, 66, 67, 68, 69, 70, 71, 72, 73, 74, 75, 76, 77, 78, 79, 80, 81, 82, 83, 84, 85, 86, 87, 88, 89, 90, 91, 92, 93, 94, 95, 96, 97, 98, 99, 100, 101, 102, 103, 104, 105, 106, 107, 108, 109, 110, 111, 112, 113, 114, 115, 116, 117, 118, 119, 120, 121, 122, 123, 124, 125, 126, 127, 128, 129, 130, 131, 132, 133, 134, 135, 136, 137, 138, 139, 140, 141, 142, 143, 144, 145, 146, 147, 148, 149, 150, 151, 152, 153, 154, 155, 156, 157, 158, 159, 160, 161, 162, 163, 164, 165, 166, 167, 168, 169, 170, 171, 172, 173, 174, 175, 176, 177, 178, 179, 180, 181, 182, 183, 184, 185, 186, 187, 188, 189, 190, 191, 192, 193, 194, 195, 196, 197, 198, 199, 200, 201, 202],
      "AcquisitionTime": ["181624.857500", "181626.347500", "181627.837500", "181629.327500", "181630.817500", "181632.307500", "181633.797500", "181635.287500", "181636.777500", "181638.267500", "181639.757500", "181641.247500", "181642.737500", "181644.227500", "181645.717500", "181647.207500", "181648.697500", "181650.187500", "181651.677500", "181653.167500", "181654.657500", "181656.147500", "181657.637500", "181659.127500", "181700.617500", "181702.107500", "181703.597500", "181705.087500", "181706.577500", "181708.067500", "181709.557500", "181711.047500", "181712.537500", "181714.027500", "181715.517500", "181717.007500", "181718.497500", "181719.987500", "181721.477500", "181722.967500", "181724.457500", "181725.947500", "181727.437500", "181728.927500", "181730.417500", "181731.907500", "181733.397500", "181734.887500", "181736.377500", "181737.867500", "181739.357500", "181740.847500", "181742.337500", "181743.827500", "181745.317500", "181746.807500", "181748.297500", "181749.787500", "181751.277500", "181752.767500", "181754.257500", "181755.747500", "181757.237500", "181758.727500", "181800.217500", "181801.707500", "181803.197500", "181804.687500", "181806.177500", "181807.667500", "181809.157500", "181810.647500", "181812.137500", "181813.627500", "181815.117500", "181816.607500", "181818.097500", "181819.587500", "181821.077500", "181822.567500", "181824.057500", "181825.547500", "181827.037500", "181828.527500", "181830.017500", "181831.507500", "181832.997500", "181834.487500", "181835.977500", "181837.467500", "181838.957500", "181840.447500", "181841.937500", "181843.427500", "181844.917500", "181846.407500", "181847.897500", "181849.387500", "181850.877500", "181852.367500", "181853.857500", "181855.347500", "181856.837500", "181858.327500", "181859.817500", "181901.307500", "181902.797500", "181904.287500", "181905.777500", "181907.267500", "181908.757500", "181910.247500", "181911.737500", "181913.227500", "181914.717500", "181916.207500", "181917.697500", "181919.187500", "181920.677500", "181922.167500", "181923.657500", "181925.147500", "181926.637500", "181928.127500", "181929.617500", "181931.107500", "181932.597500", "181934.087500", "181935.577500", "181937.067500", "181938.557500", "181940.047500", "181941.537500", "181943.027500", "181944.517500", "181946.007500", "181947.497500", "181948.987500", "181950.477500", "181951.967500", "181953.457500", "181954.947500", "181956.437500", "181957.927500", "181959.417500", "182000.907500", "182002.397500", "182003.887500", "182005.377500", "182006.867500", "182008.357500", "182009.847500", "182011.337500", "182012.827500", "182014.317500", "182015.807500", "182017.297500", "182018.787500", "182020.277500", "182021.767500", "182023.257500", "182024.747500", "182026.237500", "182027.727500", "182029.217500", "182030.707500", "182032.197500", "182033.687500", "182035.177500", "182036.667500", "182038.157500", "182039.647500", "182041.137500", "182042.627500", "182044.117500", "182045.607500", "182047.097500", "182048.587500", "182050.077500", "182051.567500", "182053.057500", "182054.547500", "182056.037500", "182057.527500", "182059.017500", "182100.507500", "182101.997500", "182103.487500", "182104.977500", "182106.467500", "182107.957500", "182109.447500", "182110.937500", "182112.427500", "182113.917500", "182115.407500", "182116.897500", "182118.387500", "182119.877500", "182121.367500", "182122.857500", "182124.347500"],
      "ContentTime": ["181742.418000", "181742.421000", "181742.424000", "181742.427000", "181742.429000", "181742.432000", "181742.434000", "181742.445000", "181742.448000", "181742.450000", "181742.453000", "181742.456000", "181742.458000", "181742.461000", "181742.463000", "181742.466000", "181742.468000", "181742.471000", "181742.482000", "181742.485000", "181742.488000", "181742.490000", "181742.493000", "181742.495000", "181802.359000", "181802.362000", "181802.371000", "181802.373000", "181802.376000", "181802.378000", "181802.381000", "181802.384000", "181802.386000", "181802.389000", "181802.391000", "181802.394000", "181802.396000", "181802.399000", "181802.401000", "181802.404000", "181802.407000", "181802.409000", "181802.412000", "181802.414000", "181822.352000", "181822.355000", "181822.357000", "181822.360000", "181822.362000", "181822.365000", "181822.368000", "181822.370000", "181822.373000", "181822.375000", "181822.378000", "181822.380000", "181822.383000", "181822.385000", "181822.388000", "181822.391000", "181822.393000", "181822.396000", "181822.398000", "181822.401000", "181842.358000", "181842.360000", "181842.363000", "181842.366000", "181842.368000", "181842.371000", "181842.373000", "181842.376000", "181842.386000", "181842.388000", "181842.391000", "181842.394000", "181842.396000", "181842.399000", "181842.401000", "181842.404000", "181842.406000", "181842.409000", "181842.411000", "181842.414000", "181902.362000", "181902.365000", "181902.368000", "181902.370000", "181902.373000", "181902.376000", "181902.378000", "181902.381000", "181902.383000", "181902.386000", "181902.389000", "181902.391000", "181902.394000", "181902.396000", "181902.399000", "181902.401000", "181902.404000", "181902.406000", "181902.409000", "181902.412000", "181942.399000", "181942.401000", "181942.404000", "181942.407000", "181942.409000", "181942.412000", "181942.414000", "181942.417000", "181942.420000", "181942.422000", "181942.425000", "181942.427000", "181942.430000", "181942.432000", "181942.435000", "181942.437000", "181942.440000", "181942.442000", "181942.445000", "181942.448000", "181942.450000", "181942.453000", "181942.455000", "181942.458000", "181942.461000", "181942.463000", "181942.466000", "182022.394000", "182022.397000", "182022.400000", "182022.402000", "182022.405000", "182022.408000", "182022.410000", "182022.413000", "182022.415000", "182022.418000", "182022.420000", "182022.423000", "182022.425000", "182022.428000", "182022.431000", "182022.433000", "182022.436000", "182022.438000", "182022.441000", "182022.443000", "182022.446000", "182022.449000", "182022.451000", "182022.454000", "182022.456000", "182022.459000", "182022.461000", "182102.492000", "182102.495000", "182102.498000", "182102.501000", "182102.504000", "182102.506000", "182102.509000", "182102.512000", "182102.515000", "182102.518000", "182102.520000", "182102.523000", "182102.526000", "182102.530000", "182102.534000", "182102.537000", "182102.540000", "182102.543000", "182102.546000", "182102.549000", "182102.552000", "182102.554000", "182102.557000", "182102.560000", "182102.562000", "182102.565000", "182102.567000", "182127.087000", "182127.090000", "182127.092000", "182127.095000", "182127.098000", "182127.100000", "182127.103000", "182127.106000", "182127.108000", "182127.111000", "182127.114000", "182127.116000", "182127.119000", "182127.122000", "182127.125000", "182127.127000", "182127.130000"],
      "InstanceCreationTime": ["181742.418000", "181742.421000", "181742.424000", "181742.427000", "181742.429000", "181742.432000", "181742.434000", "181742.445000", "181742.448000", "181742.450000", "181742.453000", "181742.456000", "181742.458000", "181742.461000", "181742.463000", "181742.466000", "181742.468000", "181742.471000", "181742.482000", "181742.485000", "181742.488000", "181742.490000", "181742.493000", "181742.495000", "181802.359000", "181802.362000", "181802.371000", "181802.373000", "181802.376000", "181802.378000", "181802.381000", "181802.384000", "181802.386000", "181802.389000", "181802.391000", "181802.394000", "181802.396000", "181802.399000", "181802.401000", "181802.404000", "181802.407000", "181802.409000", "181802.412000", "181802.414000", "181822.352000", "181822.355000", "181822.357000", "181822.360000", "181822.362000", "181822.365000", "181822.368000", "181822.370000", "181822.373000", "181822.375000", "181822.378000", "181822.380000", "181822.383000", "181822.385000", "181822.388000", "181822.391000", "181822.393000", "181822.396000", "181822.398000", "181822.401000", "181842.358000", "181842.360000", "181842.363000", "181842.366000", "181842.368000", "181842.371000", "181842.373000", "181842.376000", "181842.386000", "181842.388000", "181842.391000", "181842.394000", "181842.396000", "181842.399000", "181842.401000", "181842.404000", "181842.406000", "181842.409000", "181842.411000", "181842.414000", "181902.362000", "181902.365000", "181902.368000", "181902.370000", "181902.373000", "181902.376000", "181902.378000", "181902.381000", "181902.383000", "181902.386000", "181902.389000", "181902.391000", "181902.394000", "181902.396000", "181902.399000", "181902.401000", "181902.404000", "181902.406000", "181902.409000", "181902.412000", "181942.399000", "181942.401000", "181942.404000", "181942.407000", "181942.409000", "181942.412000", "181942.414000", "181942.417000", "181942.420000", "181942.422000", "181942.425000", "181942.427000", "181942.430000", "181942.432000", "181942.435000", "181942.437000", "181942.440000", "181942.442000", "181942.445000", "181942.448000", "181942.450000", "181942.453000", "181942.455000", "181942.458000", "181942.461000", "181942.463000", "181942.466000", "182022.394000", "182022.397000", "182022.400000", "182022.402000", "182022.405000", "182022.408000", "182022.410000", "182022.413000", "182022.415000", "182022.418000", "182022.420000", "182022.423000", "182022.425000", "182022.428000", "182022.431000", "182022.433000", "182022.436000", "182022.438000", "182022.441000", "182022.443000", "182022.446000", "182022.449000", "182022.451000", "182022.454000", "182022.456000", "182022.459000", "182022.461000", "182102.492000", "182102.495000", "182102.498000", "182102.501000", "182102.504000", "182102.506000", "182102.509000", "182102.512000", "182102.515000", "182102.518000", "182102.520000", "182102.523000", "182102.526000", "182102.530000", "182102.534000", "182102.537000", "182102.540000", "182102.543000", "182102.546000", "182102.549000", "182102.552000", "182102.554000", "182102.557000", "182102.560000", "182102.562000", "182102.565000", "182102.567000", "182127.087000", "182127.090000", "182127.092000", "182127.095000", "182127.098000", "182127.100000", "182127.103000", "182127.106000", "182127.108000", "182127.111000", "182127.114000", "182127.116000", "182127.119000", "182127.122000", "182127.125000", "182127.127000", "182127.130000"],
      "InstanceNumber": [1, 2, 3, 4, 5, 6, 7, 8, 9, 10, 11, 12, 13, 14, 15, 16, 17, 18, 19, 20, 21, 22, 23, 24, 25, 26, 27, 28, 29, 30, 31, 32, 33, 34, 35, 36, 37, 38, 39, 40, 41, 42, 43, 44, 45, 46, 47, 48, 49, 50, 51, 52, 53, 54, 55, 56, 57, 58, 59, 60, 61, 62, 63, 64, 65, 66, 67, 68, 69, 70, 71, 72, 73, 74, 75, 76, 77, 78, 79, 80, 81, 82, 83, 84, 85, 86, 87, 88, 89, 90, 91, 92, 93, 94, 95, 96, 97, 98, 99, 100, 101, 102, 103, 104, 105, 106, 107, 108, 109, 110, 111, 112, 113, 114, 115, 116, 117, 118, 119, 120, 121, 122, 123, 124, 125, 126, 127, 128, 129, 130, 131, 132, 133, 134, 135, 136, 137, 138, 139, 140, 141, 142, 143, 144, 145, 146, 147, 148, 149, 150, 151, 152, 153, 154, 155, 156, 157, 158, 159, 160, 161, 162, 163, 164, 165, 166, 167, 168, 169, 170, 171, 172, 173, 174, 175, 176, 177, 178, 179, 180, 181, 182, 183, 184, 185, 186, 187, 188, 189, 190, 191, 192, 193, 194, 195, 196, 197, 198, 199, 200, 201, 202],
      "WindowCenter": [4814.0, 4806.0, 4806.0, 4810.0, 4844.0, 4848.0, 4846.0, 4838.0, 4812.0, 4806.0, 4806.0, 4810.0, 4838.0, 4844.0, 4844.0, 4812.0, 4804.0, 4808.0, 4836.0, 4838.0, 4812.0, 4812.0, 4806.0, 4810.0, 4838.0, 4844.0, 4844.0, 4816.0, 4810.0, 4808.0, 4834.0, 4838.0, 4838.0, 4836.0, 4808.0, 4806.0, 4808.0, 4814.0, 4842.0, 4844.0, 4836.0, 4810.0, 4808.0, 4806.0, 4834.0, 4816.0, 4840.0, 4812.0, 4808.0, 4808.0, 4810.0, 4836.0, 4844.0, 4840.0, 4834.0, 4810.0, 4812.0, 4812.0, 4810.0, 4806.0, 4806.0, 4834.0, 4838.0, 4814.0, 4814.0, 4812.0, 4808.0, 4812.0, 4810.0, 4810.0, 4808.0, 4812.0, 4840.0, 4840.0, 4840.0, 4802.0, 4808.0, 4810.0, 4836.0, 4814.0, 4814.0, 4812.0, 4812.0, 4808.0, 4812.0, 4810.0, 4812.0, 4812.0, 4812.0, 4812.0, 4812.0, 4806.0, 4810.0, 4810.0, 4812.0, 4812.0, 4808.0, 4810.0, 4812.0, 4812.0, 4808.0, 4812.0, 4808.0, 4808.0, 4810.0, 4808.0, 4808.0, 4808.0, 4808.0, 4808.0, 4806.0, 4810.0, 4814.0, 4814.0, 4814.0, 4810.0, 4806.0, 4804.0, 4808.0, 4806.0, 4814.0, 4838.0, 4838.0, 4836.0, 4806.0, 4808.0, 4810.0, 4806.0, 4836.0, 4834.0, 4814.0, 4808.0, 4808.0, 4810.0, 4808.0, 4810.0, 4812.0, 4810.0, 4810.0, 4808.0, 4806.0, 4810.0, 4812.0, 4810.0, 4810.0, 4812.0, 4812.0, 4810.0, 4806.0, 4808.0, 4812.0, 4810.0, 4808.0, 4808.0, 4812.0, 4812.0, 4812.0, 4808.0, 4806.0, 4810.0, 4812.0, 4812.0, 4810.0, 4806.0, 4808.0, 4808.0, 4804.0, 4814.0, 4842.0, 4840.0, 4836.0, 4808.0, 4806.0, 4808.0, 4810.0, 4808.0, 4810.0, 4838.0, 4842.0, 4814.0, 4808.0, 4808.0, 4814.0, 4810.0, 4808.0, 4814.0, 4806.0, 4814.0, 4812.0, 4810.0, 4834.0, 4816.0, 4812.0, 4810.0, 4808.0, 4812.0, 4808.0, 4806.0, 4804.0, 4808.0, 4844.0, 4842.0],
      "WindowWidth": [18606.0, 18598.0, 18602.0, 18598.0, 18640.0, 18642.0, 18640.0, 18632.0, 18602.0, 18602.0, 18606.0, 18606.0, 18634.0, 18644.0, 18640.0, 18602.0, 18596.0, 18596.0, 18632.0, 18634.0, 18602.0, 18604.0, 18596.0, 18602.0, 18634.0, 18642.0, 18640.0, 18600.0, 18602.0, 18598.0, 18632.0, 18636.0, 18630.0, 18630.0, 18600.0, 18604.0, 18598.0, 18604.0, 18640.0, 18642.0, 18634.0, 18600.0, 18600.0, 18596.0, 18630.0, 18602.0, 18634.0, 18598.0, 18600.0, 18600.0, 18594.0, 18636.0, 18638.0, 18640.0, 18632.0, 18600.0, 18602.0, 18598.0, 18596.0, 18596.0, 18598.0, 18628.0, 18634.0, 18602.0, 18604.0, 18602.0, 18598.0, 18598.0, 18598.0, 18606.0, 18598.0, 18598.0, 18632.0, 18638.0, 18636.0, 18592.0, 18600.0, 18606.0, 18632.0, 18602.0, 18602.0, 18600.0, 18600.0, 18602.0, 18604.0, 18596.0, 18600.0, 18598.0, 18602.0, 18600.0, 18602.0, 18596.0, 18596.0, 18602.0, 18600.0, 18600.0, 18596.0, 18602.0, 18604.0, 18604.0, 18598.0, 18604.0, 18596.0, 18598.0, 18596.0, 18600.0, 18592.0, 18598.0, 18592.0, 18600.0, 18592.0, 18598.0, 18600.0, 18600.0, 18600.0, 18600.0, 18594.0, 18598.0, 18612.0, 18600.0, 18598.0, 18640.0, 18636.0, 18636.0, 18590.0, 18610.0, 18602.0, 18596.0, 18630.0, 18630.0, 18600.0, 18598.0, 18600.0, 18602.0, 18600.0, 18602.0, 18602.0, 18600.0, 18600.0, 18596.0, 18598.0, 18598.0, 18598.0, 18598.0, 18598.0, 18602.0, 18602.0, 18598.0, 18598.0, 18600.0, 18598.0, 18602.0, 18598.0, 18600.0, 18600.0, 18598.0, 18596.0, 18598.0, 18594.0, 18598.0, 18598.0, 18598.0, 18598.0, 18596.0, 18604.0, 18610.0, 18592.0, 18606.0, 18642.0, 18640.0, 18636.0, 18596.0, 18596.0, 18600.0, 18610.0, 18606.0, 18600.0, 18636.0, 18638.0, 18606.0, 18592.0, 18596.0, 18598.0, 18602.0, 18596.0, 18604.0, 18592.0, 18604.0, 18598.0, 18594.0, 18630.0, 18598.0, 18598.0, 18598.0, 18596.0, 18594.0, 18590.0, 18600.0, 18600.0, 18594.0, 18638.0, 18640.0]
    },
    "slices": {}
  }
}