{
  "AcquisitionMatrixPE": 104,
  "AcquisitionNumber": 1,
  "AcquisitionTime": "18:23:33.185000",
  "BandwidthPerPixelPhaseEncode": 17.17,
  "BaseResolution": 104,
  "BodyPartExamined": "BRAIN",
  "CoilString": "HC1-7;NC1_2",
  "ConsistencyInfo": "N4_VE11C_LATEST_20160120",
  "ConversionSoftware": "dcm2niix",
  "ConversionSoftwareVersion": "v1.0.20190902",
  "DerivedVendorReportedEchoSpacing": 0.000560011,
  "DeviceSerialNumber": "167006",
  "DwellTime": 2.1e-06,
  "EchoTime": 0.037,
  "EchoTrainLength": 104,
  "EffectiveEchoSpacing": 0.000560011,
  "FlipAngle": 52,
  "ImageComments": "Unaliased_MB4_PE3_LB",
  "ImageOrientationPatientDICOM": [0.996401, 0.0452488, 0.0716762, -0.0109564, 0.907256, -0.420437],
  "ImageType": [
    "ORIGINAL",
    "PRIMARY",
    "P",
    "MB",
    "ND",
    "MOSAIC"
],
  "ImagingFrequency": 123.259,
  "InPlanePhaseEncodingDirectionDICOM": "COL",
  "InstitutionAddress": "Chemin_Queen-Mary_4565_Montreal_District_CA_H3W_1W5",
  "InstitutionName": "IUGM",
  "InstitutionalDepartmentName": "Department",
  "MRAcquisitionType": "2D",
  "MagneticFieldStrength": 3,
  "Manufacturer": "Siemens",
  "ManufacturersModelName": "Prisma_fit",
  "Modality": "MR",
  "MultibandAccelerationFactor": 4,
  "PartialFourier": 1,
  "PatientPosition": "HFS",
  "PercentPhaseFOV": 100,
  "PhaseEncodingDirection": "j",
  "PhaseEncodingSteps": 104,
  "PhaseResolution": 1,
  "PixelBandwidth": 2290,
  "ProcedureStepDescription": "localizers_retinotopy",
  "ProtocolName": "func_task-rings",
  "PulseSequenceDetails": "%CustomerSeq%_cmrr_mbep2d_bold",
  "ReceiveCoilActiveElements": "HC1-7;NC1,2",
  "ReceiveCoilName": "HeadNeck_64",
  "ReconMatrixPE": 104,
  "RepetitionTime": 1.49,
  "SAR": 0.0604245,
  "ScanOptions": "FS",
  "ScanningSequence": "EP",
  "SequenceName": "epfid2d1_104",
  "SequenceVariant": "SK_SS",
  "SeriesDescription": "func_task-rings",
  "SeriesNumber": 14,
  "ShimSetting": [637, -7190, -8827, 589, 76, 2, -87, 17],
  "SliceThickness": 2,
  "SliceTiming": [0, 0.785, 0.0975, 0.8825, 0.1975, 0.98, 0.295, 1.0775, 0.3925, 1.1775, 0.49, 1.275, 0.5875, 1.3725, 0.6875, 0, 0.785, 0.0975, 0.8825, 0.1975, 0.98, 0.295, 1.0775, 0.3925, 1.1775, 0.49, 1.275, 0.5875, 1.3725, 0.6875, 0, 0.785, 0.0975, 0.8825, 0.1975, 0.98, 0.295, 1.0775, 0.3925, 1.1775, 0.49, 1.275, 0.5875, 1.3725, 0.6875, 0, 0.785, 0.0975, 0.8825, 0.1975, 0.98, 0.295, 1.0775, 0.3925, 1.1775, 0.49, 1.275, 0.5875, 1.3725, 0.6875],
  "SoftwareVersions": "syngo_MR_E11",
  "SpacingBetweenSlices": 2,
  "StationName": "MRC35049",
  "TaskName": "rings",
  "TotalReadoutTime": 0.0576811,
  "TxRefAmp": 294.532,
  "WipMemBlock": "eb63e535-b717-43eb-bb86-8b8ce3eeb8ca||Sequence: R016 ve11c/master r/e634e98; Dec 19 2017 11:00:25 by eja",
  "dcmmeta_affine": [
    [-1.9928021430969238, -0.021912766620516777, 0.16810578107833862, 104.08650970458984],
    [-0.09049760550260544, 1.8145116567611694, -0.8362760543823242, -51.18566131591797],
    [0.14335238933563232, 0.8408730030059814, 1.808972716331482, -71.69306945800781],
    [0.0, 0.0, 0.0, 1.0]
],
  "dcmmeta_reorient_transform": [
    [0.0, -1.0, 0.0, 103.0],
    [1.0, 0.0, 0.0, 0.0],
    [0.0, 0.0, 1.0, 0.0],
    [0.0, 0.0, 0.0, 1.0]
],
  "dcmmeta_shape": [104, 104, 60, 202],
  "dcmmeta_slice_dim": 2,
  "dcmmeta_version": 0.6,
  "global": {
    "const": {
      "AcquisitionMatrix": [104, 0, 0, 104],
      "AngioFlag": "N",
      "BitsAllocated": 16,
      "BitsStored": 16,
      "BodyPartExamined": "BRAIN",
      "Columns": 832,
      "EchoNumbers": 1,
      "EchoTime": 37.0,
      "EchoTrainLength": 104,
      "FlipAngle": 52.0,
      "HighBit": 15,
      "ImageOrientationPatient": [0.99640105825705, 0.04524880261024, 0.07167619525743, -0.0109563829679, 0.90725581694694, -0.4204364878174],
      "ImagePositionPatient": [-819.23322011523, -829.13239922719, 268.81433825118],
      "ImageType": [
        "ORIGINAL",
        "PRIMARY",
        "P",
        "MB",
        "ND",
        "MOSAIC"
],
      "ImagedNucleus": "1H",
      "ImagingFrequency": 123.25894,
      "InPlanePhaseEncodingDirection": "COL",
      "LargestImagePixelValue": 4095,
      "MRAcquisitionType": "2D",
      "MagneticFieldStrength": 3.0,
      "Manufacturer": "SIEMENS",
      "ManufacturerModelName": "Prisma_fit",
      "Modality": "MR",
      "NumberOfAverages": 1.0,
      "NumberOfPhaseEncodingSteps": 104,
      "PercentPhaseFieldOfView": 100.0,
      "PercentSampling": 100.0,
      "PerformedProcedureStepStartTime": "181247.884000",
      "PhotometricInterpretation": "MONOCHROME2",
      "PixelBandwidth": 2290.0,
      "PixelRepresentation": 0,
      "PixelSpacing": [2.0, 2.0],
      "ProtocolName": "func_task-rings",
      "RepetitionTime": 1490.0,
      "RescaleIntercept": -4096.0,
      "RescaleSlope": 2.0,
      "RescaleType": "US",
      "Rows": 832,
      "SAR": 0.06042449547591,
      "SamplesPerPixel": 1,
      "ScanOptions": "FS",
      "ScanningSequence": "EP",
      "SequenceName": "epfid2d1_104",
      "SequenceVariant": [
        "SK",
        "SS"
],
      "SeriesDescription": "func_task-rings",
      "SeriesNumber": 14,
      "SeriesTime": "182451.512000",
      "SliceLocation": -34.693963987819,
      "SliceThickness": 2.0,
      "SmallestImagePixelValue": 0,
      "SoftwareVersions": "syngo MR E11",
      "SpacingBetweenSlices": 1.9999999291612,
      "SpecificCharacterSet": "ISO_IR 100",
      "StudyID": "1",
      "StudyTime": "181247.816000",
      "TransmitCoilName": "Body",
      "VariableFlipAngleFlag": "N",
      "WindowCenterWidthExplanation": "Algo1",
      "dBdt": 0.0},
    "slices": {}
  },
  "time": {
    "samples": {
      "AcquisitionNumber": [1, 2, 3, 4, 5, 6, 7, 8, 9, 10, 11, 12, 13, 14, 15, 16, 17, 18, 19, 20, 21, 22, 23, 24, 25, 26, 27, 28, 29, 30, 31, 32, 33, 34, 35, 36, 37, 38, 39, 40, 41, 42, 43, 44, 45, 46, 47, 48, 49, 50, 51, 52, 53, 54, 55, 56, 57, 58, 59, 60, 61, 62, 63, 64, 65, 66, 67, 68, 69, 70, 71, 72, 73, 74, 75, 76, 77, 78, 79, 80, 81, 82, 83, 84, 85, 86, 87, 88, 89, 90, 91, 92, 93, 94, 95, 96, 97, 98, 99, 100, 101, 102, 103, 104, 105, 106, 107, 108, 109, 110, 111, 112, 113, 114, 115, 116, 117, 118, 119, 120, 121, 122, 123, 124, 125, 126, 127, 128, 129, 130, 131, 132, 133, 134, 135, 136, 137, 138, 139, 140, 141, 142, 143, 144, 145, 146, 147, 148, 149, 150, 151, 152, 153, 154, 155, 156, 157, 158, 159, 160, 161, 162, 163, 164, 165, 166, 167, 168, 169, 170, 171, 172, 173, 174, 175, 176, 177, 178, 179, 180, 181, 182, 183, 184, 185, 186, 187, 188, 189, 190, 191, 192, 193, 194, 195, 196, 197, 198, 199, 200, 201, 202],
      "AcquisitionTime": ["182333.185000", "182334.675000", "182336.165000", "182337.655000", "182339.145000", "182340.635000", "182342.125000", "182343.615000", "182345.105000", "182346.595000", "182348.085000", "182349.575000", "182351.065000", "182352.555000", "182354.045000", "182355.535000", "182357.025000", "182358.515000", "182400.005000", "182401.495000", "182402.985000", "182404.475000", "182405.965000", "182407.455000", "182408.945000", "182410.435000", "182411.925000", "182413.415000", "182414.905000", "182416.395000", "182417.885000", "182419.375000", "182420.865000", "182422.355000", "182423.845000", "182425.335000", "182426.825000", "182428.315000", "182429.805000", "182431.295000", "182432.785000", "182434.275000", "182435.765000", "182437.255000", "182438.745000", "182440.235000", "182441.725000", "182443.215000", "182444.705000", "182446.195000", "182447.685000", "182449.175000", "182450.665000", "182452.155000", "182453.645000", "182455.135000", "182456.625000", "182458.115000", "182459.605000", "182501.095000", "182502.585000", "182504.075000", "182505.565000", "182507.055000", "182508.545000", "182510.035000", "182511.525000", "182513.015000", "182514.505000", "182515.995000", "182517.485000", "182518.975000", "182520.465000", "182521.955000", "182523.445000", "182524.935000", "182526.425000", "182527.915000", "182529.405000", "182530.895000", "182532.385000", "182533.875000", "182535.365000", "182536.855000", "182538.345000", "182539.835000", "182541.325000", "182542.815000", "182544.305000", "182545.795000", "182547.285000", "182548.775000", "182550.265000", "182551.755000", "182553.245000", "182554.735000", "182556.225000", "182557.715000", "182559.205000", "182600.695000", "182602.185000", "182603.675000", "182605.165000", "182606.655000", "182608.145000", "182609.635000", "182611.125000", "182612.615000", "182614.105000", "182615.595000", "182617.085000", "182618.575000", "182620.065000", "182621.555000", "182623.045000", "182624.535000", "182626.025000", "182627.515000", "182629.005000", "182630.495000", "182631.985000", "182633.475000", "182634.965000", "182636.455000", "182637.945000", "182639.435000", "182640.925000", "182642.415000", "182643.905000", "182645.395000", "182646.885000", "182648.375000", "182649.865000", "182651.355000", "182652.845000", "182654.335000", "182655.825000", "182657.315000", "182658.805000", "182700.295000", "182701.785000", "182703.275000", "182704.765000", "182706.255000", "182707.745000", "182709.235000", "182710.725000", "182712.215000", "182713.705000", "182715.195000", "182716.685000", "182718.175000", "182719.665000", "182721.155000", "182722.645000", "182724.135000", "182725.625000", "182727.115000", "182728.605000", "182730.095000", "182731.585000", "182733.075000", "182734.565000", "182736.055000", "182737.545000", "182739.035000", "182740.525000", "182742.015000", "182743.505000", "182744.995000", "182746.485000", "182747.975000", "182749.465000", "182750.955000", "182752.445000", "182753.935000", "182755.425000", "182756.915000", "182758.405000", "182759.895000", "182801.385000", "182802.875000", "182804.365000", "182805.855000", "182807.345000", "182808.835000", "182810.325000", "182811.815000", "182813.305000", "182814.795000", "182816.285000", "182817.775000", "182819.265000", "182820.755000", "182822.245000", "182823.735000", "182825.225000", "182826.715000", "182828.205000", "182829.695000", "182831.185000", "182832.675000"],
      "ContentTime": ["182451.514000", "182451.516000", "182451.519000", "182451.521000", "182451.524000", "182451.526000", "182451.529000", "182451.531000", "182451.534000", "182451.536000", "182451.538000", "182451.541000", "182451.543000", "182451.546000", "182451.548000", "182451.551000", "182451.553000", "182451.555000", "182451.558000", "182451.560000", "182451.563000", "182451.565000", "182451.568000", "182511.465000", "182511.468000", "182511.470000", "182511.473000", "182511.475000", "182511.478000", "182511.480000", "182511.482000", "182511.485000", "182511.487000", "182511.490000", "182511.492000", "182511.495000", "182511.497000", "182511.500000", "182511.502000", "182511.505000", "182511.507000", "182511.510000", "182511.512000", "182531.476000", "182531.478000", "182531.481000", "182531.483000", "182531.486000", "182531.488000", "182531.491000", "182531.493000", "182531.496000", "182531.498000", "182531.508000", "182531.510000", "182531.513000", "182531.515000", "182531.518000", "182531.520000", "182531.523000", "182531.525000", "182531.528000", "182531.530000", "182531.533000", "182551.463000", "182551.466000", "182551.468000", "182551.471000", "182551.473000", "182551.476000", "182551.478000", "182551.481000", "182551.483000", "182551.485000", "182551.488000", "182551.490000", "182551.493000", "182551.495000", "182551.498000", "182551.500000", "182551.503000", "182551.505000", "182551.508000", "182551.510000", "182611.457000", "182611.460000", "182611.462000", "182611.465000", "182611.467000", "182611.470000", "182611.472000", "182611.474000", "182611.477000", "182611.479000", "182611.482000", "182611.484000", "182611.487000", "182611.489000", "182611.492000", "182611.494000", "182611.496000", "182611.499000", "182611.501000", "182611.504000", "182631.433000", "182631.435000", "182631.438000", "182631.440000", "182631.443000", "182631.445000", "182631.448000", "182631.450000", "182631.453000", "182631.455000", "182631.457000", "182631.460000", "182631.462000", "182631.465000", "182711.498000", "182711.501000", "182711.503000", "182711.506000", "182711.508000", "182711.511000", "182711.513000", "182711.515000", "182711.518000", "182711.520000", "182711.523000", "182711.525000", "182711.528000", "182711.530000", "182711.533000", "182711.536000", "182711.538000", "182711.540000", "182711.543000", "182711.545000", "182711.548000", "182711.550000", "182711.553000", "182711.555000", "182711.558000", "182711.560000", "182711.563000", "182751.522000", "182751.525000", "182751.527000", "182751.530000", "182751.532000", "182751.535000", "182751.537000", "182751.540000", "182751.542000", "182751.545000", "182751.547000", "182751.550000", "182751.552000", "182751.554000", "182751.557000", "182751.559000", "182751.562000", "182751.564000", "182751.567000", "182751.569000", "182751.572000", "182751.574000", "182751.577000", "182751.579000", "182751.582000", "182751.584000", "182751.587000", "182831.507000", "182831.510000", "182831.512000", "182831.515000", "182831.517000", "182831.520000", "182831.522000", "182831.525000", "182831.527000", "182831.529000", "182831.532000", "182831.535000", "182831.537000", "182831.540000", "182831.542000", "182831.545000", "182831.547000", "182831.550000", "182831.552000", "182831.554000", "182831.557000", "182831.559000", "182831.562000", "182831.564000", "182831.567000", "182831.569000", "182831.572000", "182835.156000", "182835.159000", "182835.161000"],
      "InstanceCreationTime": ["182451.514000", "182451.516000", "182451.519000", "182451.521000", "182451.524000", "182451.526000", "182451.529000", "182451.531000", "182451.534000", "182451.536000", "182451.538000", "182451.541000", "182451.543000", "182451.546000", "182451.548000", "182451.551000", "182451.553000", "182451.555000", "182451.558000", "182451.560000", "182451.563000", "182451.565000", "182451.568000", "182511.465000", "182511.468000", "182511.470000", "182511.473000", "182511.475000", "182511.478000", "182511.480000", "182511.482000", "182511.485000", "182511.487000", "182511.490000", "182511.492000", "182511.495000", "182511.497000", "182511.500000", "182511.502000", "182511.505000", "182511.507000", "182511.510000", "182511.512000", "182531.476000", "182531.478000", "182531.481000", "182531.483000", "182531.486000", "182531.488000", "182531.491000", "182531.493000", "182531.496000", "182531.498000", "182531.508000", "182531.510000", "182531.513000", "182531.515000", "182531.518000", "182531.520000", "182531.523000", "182531.525000", "182531.528000", "182531.530000", "182531.533000", "182551.463000", "182551.466000", "182551.468000", "182551.471000", "182551.473000", "182551.476000", "182551.478000", "182551.481000", "182551.483000", "182551.485000", "182551.488000", "182551.490000", "182551.493000", "182551.495000", "182551.498000", "182551.500000", "182551.503000", "182551.505000", "182551.508000", "182551.510000", "182611.457000", "182611.460000", "182611.462000", "182611.465000", "182611.467000", "182611.470000", "182611.472000", "182611.474000", "182611.477000", "182611.479000", "182611.482000", "182611.484000", "182611.487000", "182611.489000", "182611.492000", "182611.494000", "182611.496000", "182611.499000", "182611.501000", "182611.504000", "182631.433000", "182631.435000", "182631.438000", "182631.440000", "182631.443000", "182631.445000", "182631.448000", "182631.450000", "182631.453000", "182631.455000", "182631.457000", "182631.460000", "182631.462000", "182631.465000", "182711.498000", "182711.501000", "182711.503000", "182711.506000", "182711.508000", "182711.511000", "182711.513000", "182711.515000", "182711.518000", "182711.520000", "182711.523000", "182711.525000", "182711.528000", "182711.530000", "182711.533000", "182711.536000", "182711.538000", "182711.540000", "182711.543000", "182711.545000", "182711.548000", "182711.550000", "182711.553000", "182711.555000", "182711.558000", "182711.560000", "182711.563000", "182751.522000", "182751.525000", "182751.527000", "182751.530000", "182751.532000", "182751.535000", "182751.537000", "182751.540000", "182751.542000", "182751.545000", "182751.547000", "182751.550000", "182751.552000", "182751.554000", "182751.557000", "182751.559000", "182751.562000", "182751.564000", "182751.567000", "182751.569000", "182751.572000", "182751.574000", "182751.577000", "182751.579000", "182751.582000", "182751.584000", "182751.587000", "182831.507000", "182831.510000", "182831.512000", "182831.515000", "182831.517000", "182831.520000", "182831.522000", "182831.525000", "182831.527000", "182831.529000", "182831.532000", "182831.535000", "182831.537000", "182831.540000", "182831.542000", "182831.545000", "182831.547000", "182831.550000", "182831.552000", "182831.554000", "182831.557000", "182831.559000", "182831.562000", "182831.564000", "182831.567000", "182831.569000", "182831.572000", "182835.156000", "182835.159000", "182835.161000"],
      "InstanceNumber": [1, 2, 3, 4, 5, 6, 7, 8, 9, 10, 11, 12, 13, 14, 15, 16, 17, 18, 19, 20, 21, 22, 23, 24, 25, 26, 27, 28, 29, 30, 31, 32, 33, 34, 35, 36, 37, 38, 39, 40, 41, 42, 43, 44, 45, 46, 47, 48, 49, 50, 51, 52, 53, 54, 55, 56, 57, 58, 59, 60, 61, 62, 63, 64, 65, 66, 67, 68, 69, 70, 71, 72, 73, 74, 75, 76, 77, 78, 79, 80, 81, 82, 83, 84, 85, 86, 87, 88, 89, 90, 91, 92, 93, 94, 95, 96, 97, 98, 99, 100, 101, 102, 103, 104, 105, 106, 107, 108, 109, 110, 111, 112, 113, 114, 115, 116, 117, 118, 119, 120, 121, 122, 123, 124, 125, 126, 127, 128, 129, 130, 131, 132, 133, 134, 135, 136, 137, 138, 139, 140, 141, 142, 143, 144, 145, 146, 147, 148, 149, 150, 151, 152, 153, 154, 155, 156, 157, 158, 159, 160, 161, 162, 163, 164, 165, 166, 167, 168, 169, 170, 171, 172, 173, 174, 175, 176, 177, 178, 179, 180, 181, 182, 183, 184, 185, 186, 187, 188, 189, 190, 191, 192, 193, 194, 195, 196, 197, 198, 199, 200, 201, 202],
      "WindowCenter": [4816.0, 4796.0, 4792.0, 4792.0, 4818.0, 4818.0, 4818.0, 4816.0, 4820.0, 4826.0, 4820.0, 4822.0, 4828.0, 4826.0, 4824.0, 4790.0, 4788.0, 4788.0, 4792.0, 4794.0, 4822.0, 4824.0, 4824.0, 4818.0, 4796.0, 4792.0, 4792.0, 4792.0, 4794.0, 4794.0, 4798.0, 4818.0, 4798.0, 4818.0, 4794.0, 4794.0, 4796.0, 4792.0, 4796.0, 4792.0, 4794.0, 4794.0, 4816.0, 4794.0, 4794.0, 4798.0, 4822.0, 4796.0, 4794.0, 4818.0, 4794.0, 4794.0, 4794.0, 4796.0, 4796.0, 4796.0, 4794.0, 4796.0, 4820.0, 4792.0, 4818.0, 4794.0, 4818.0, 4796.0, 4796.0, 4794.0, 4824.0, 4820.0, 4820.0, 4816.0, 4794.0, 4792.0, 4792.0, 4816.0, 4816.0, 4818.0, 4820.0, 4820.0, 4822.0, 4816.0, 4818.0, 4792.0, 4792.0, 4794.0, 4794.0, 4822.0, 4796.0, 4820.0, 4816.0, 4794.0, 4818.0, 4818.0, 4818.0, 4820.0, 4790.0, 4818.0, 4818.0, 4818.0, 4818.0, 4818.0, 4818.0, 4820.0, 4818.0, 4820.0, 4796.0, 4814.0, 4794.0, 4796.0, 4818.0, 4822.0, 4822.0, 4820.0, 4816.0, 4794.0, 4814.0, 4816.0, 4818.0, 4820.0, 4818.0, 4798.0, 4820.0, 4822.0, 4820.0, 4796.0, 4794.0, 4818.0, 4816.0, 4794.0, 4820.0, 4796.0, 4818.0, 4822.0, 4822.0, 4820.0, 4818.0, 4818.0, 4816.0, 4792.0, 4790.0, 4790.0, 4818.0, 4820.0, 4794.0, 4790.0, 4792.0, 4816.0, 4790.0, 4794.0, 4798.0, 4796.0, 4794.0, 4798.0, 4794.0, 4792.0, 4792.0, 4792.0, 4792.0, 4792.0, 4796.0, 4820.0, 4796.0, 4792.0, 4792.0, 4792.0, 4794.0, 4794.0, 4818.0, 4820.0, 4820.0, 4818.0, 4796.0, 4792.0, 4796.0, 4794.0, 4798.0, 4822.0, 4818.0, 4796.0, 4820.0, 4798.0, 4796.0, 4794.0, 4792.0, 4792.0, 4796.0, 4794.0, 4796.0, 4794.0, 4794.0, 4796.0, 4792.0, 4794.0, 4798.0, 4792.0, 4794.0, 4820.0, 4794.0, 4794.0, 4794.0, 4792.0, 4794.0, 4796.0],
      "WindowWidth": [18592.0, 18562.0, 18560.0, 18564.0, 18590.0, 18590.0, 18592.0, 18590.0, 18590.0, 18596.0, 18586.0, 18592.0, 18598.0, 18592.0, 18596.0, 18558.0, 18562.0, 18564.0, 18570.0, 18560.0, 18596.0, 18590.0, 18588.0, 18590.0, 18562.0, 18560.0, 18572.0, 18566.0, 18566.0, 18564.0, 18564.0, 18590.0, 18562.0, 18590.0, 18558.0, 18560.0, 18564.0, 18560.0, 18562.0, 18558.0, 18558.0, 18558.0, 18588.0, 18562.0, 18560.0, 18558.0, 18592.0, 18556.0, 18560.0, 18592.0, 18568.0, 18562.0, 18564.0, 18560.0, 18564.0, 18562.0, 18556.0, 18560.0, 18592.0, 18566.0, 18592.0, 18558.0, 18594.0, 18564.0, 18562.0, 18558.0, 18596.0, 18592.0, 18592.0, 18596.0, 18562.0, 18560.0, 18562.0, 18596.0, 18592.0, 18592.0, 18590.0, 18590.0, 18592.0, 18592.0, 18592.0, 18562.0, 18562.0, 18562.0, 18558.0, 18590.0, 18562.0, 18594.0, 18588.0, 18562.0, 18592.0, 18594.0, 18590.0, 18600.0, 18558.0, 18590.0, 18594.0, 18594.0, 18594.0, 18594.0, 18594.0, 18588.0, 18586.0, 18592.0, 18562.0, 18596.0, 18566.0, 18564.0, 18596.0, 18592.0, 18592.0, 18592.0, 18588.0, 18562.0, 18592.0, 18596.0, 18590.0, 18594.0, 18588.0, 18564.0, 18586.0, 18588.0, 18586.0, 18562.0, 18566.0, 18598.0, 18594.0, 18562.0, 18596.0, 18556.0, 18586.0, 18590.0, 18592.0, 18592.0, 18588.0, 18592.0, 18590.0, 18560.0, 18566.0, 18562.0, 18586.0, 18590.0, 18562.0, 18554.0, 18558.0, 18596.0, 18560.0, 18556.0, 18564.0, 18560.0, 18560.0, 18560.0, 18562.0, 18562.0, 18564.0, 18556.0, 18560.0, 18554.0, 18556.0, 18596.0, 18560.0, 18562.0, 18562.0, 18560.0, 18564.0, 18556.0, 18586.0, 18592.0, 18590.0, 18588.0, 18558.0, 18556.0, 18558.0, 18564.0, 18562.0, 18590.0, 18590.0, 18560.0, 18590.0, 18560.0, 18564.0, 18558.0, 18564.0, 18554.0, 18560.0, 18558.0, 18560.0, 18556.0, 18560.0, 18568.0, 18558.0, 18556.0, 18562.0, 18558.0, 18560.0, 18594.0, 18554.0, 18558.0, 18560.0, 18558.0, 18558.0, 18564.0]
    },
    "slices": {}
  }
}