{
  "AcquisitionMatrixPE": 104,
  "AcquisitionNumber": 1,
  "AcquisitionTime": "18:29:35.755000",
  "BandwidthPerPixelPhaseEncode": 17.17,
  "BaseResolution": 104,
  "BodyPartExamined": "BRAIN",
  "CoilString": "HC1-7;NC1_2",
  "ConsistencyInfo": "N4_VE11C_LATEST_20160120",
  "ConversionSoftware": "dcm2niix",
  "ConversionSoftwareVersion": "v1.0.20190902",
  "DerivedVendorReportedEchoSpacing": 0.000560011,
  "DeviceSerialNumber": "167006",
  "DwellTime": 2.1e-06,
  "EchoTime": 0.037,
  "EchoTrainLength": 104,
  "EffectiveEchoSpacing": 0.000560011,
  "FlipAngle": 52,
  "ImageComments": "Unaliased_MB4_PE3_LB",
  "ImageOrientationPatientDICOM": [0.996401, 0.0452488, 0.0716762, -0.0109564, 0.907256, -0.420437],
  "ImageType": [
    "ORIGINAL",
    "PRIMARY",
    "M",
    "MB",
    "ND",
    "MOSAIC"
],
  "ImagingFrequency": 123.259,
  "InPlanePhaseEncodingDirectionDICOM": "COL",
  "InstitutionAddress": "Chemin_Queen-Mary_4565_Montreal_District_CA_H3W_1W5",
  "InstitutionName": "IUGM",
  "InstitutionalDepartmentName": "Department",
  "MRAcquisitionType": "2D",
  "MagneticFieldStrength": 3,
  "Manufacturer": "Siemens",
  "ManufacturersModelName": "Prisma_fit",
  "Modality": "MR",
  "MultibandAccelerationFactor": 4,
  "PartialFourier": 1,
  "PatientPosition": "HFS",
  "PercentPhaseFOV": 100,
  "PhaseEncodingDirection": "j",
  "PhaseEncodingSteps": 104,
  "PhaseResolution": 1,
  "PixelBandwidth": 2290,
  "ProcedureStepDescription": "localizers_retinotopy",
  "ProtocolName": "func_task-bars",
  "PulseSequenceDetails": "%CustomerSeq%_cmrr_mbep2d_bold",
  "ReceiveCoilActiveElements": "HC1-7;NC1,2",
  "ReceiveCoilName": "HeadNeck_64",
  "ReconMatrixPE": 104,
  "RepetitionTime": 1.49,
  "SAR": 0.0604245,
  "ScanOptions": "FS",
  "ScanningSequence": "EP",
  "SequenceName": "epfid2d1_104",
  "SequenceVariant": "SK_SS",
  "SeriesDescription": "func_task-bars",
  "SeriesNumber": 16,
  "ShimSetting": [637, -7190, -8827, 589, 76, 2, -87, 17],
  "SliceThickness": 2,
  "SliceTiming": [0, 0.7825, 0.0975, 0.88, 0.195, 0.9775, 0.2925, 1.0775, 0.39, 1.175, 0.49, 1.2725, 0.5875, 1.37, 0.685, 0, 0.7825, 0.0975, 0.88, 0.195, 0.9775, 0.2925, 1.0775, 0.39, 1.175, 0.49, 1.2725, 0.5875, 1.37, 0.685, 0, 0.7825, 0.0975, 0.88, 0.195, 0.9775, 0.2925, 1.0775, 0.39, 1.175, 0.49, 1.2725, 0.5875, 1.37, 0.685, 0, 0.7825, 0.0975, 0.88, 0.195, 0.9775, 0.2925, 1.0775, 0.39, 1.175, 0.49, 1.2725, 0.5875, 1.37, 0.685],
  "SoftwareVersions": "syngo_MR_E11",
  "SpacingBetweenSlices": 2,
  "StationName": "MRC35049",
  "TaskName": "bars",
  "TotalReadoutTime": 0.0576811,
  "TxRefAmp": 294.532,
  "WipMemBlock": "0ea8ac7a-c00a-416c-87b5-a1b505af48bc||Sequence: R016 ve11c/master r/e634e98; Dec 19 2017 11:00:25 by eja",
  "dcmmeta_affine": [
    [-1.9928021430969238, -0.021912766620516777, 0.16810578107833862, 104.08650970458984],
    [-0.09049760550260544, 1.8145116567611694, -0.8362760543823242, -51.18566131591797],
    [0.14335238933563232, 0.8408730030059814, 1.808972716331482, -71.69306945800781],
    [0.0, 0.0, 0.0, 1.0]
],
  "dcmmeta_reorient_transform": [
    [0.0, -1.0, 0.0, 103.0],
    [1.0, 0.0, 0.0, 0.0],
    [0.0, 0.0, 1.0, 0.0],
    [0.0, 0.0, 0.0, 1.0]
],
  "dcmmeta_shape": [104, 104, 60, 202],
  "dcmmeta_slice_dim": 2,
  "dcmmeta_version": 0.6,
  "global": {
    "const": {
      "AcquisitionMatrix": [104, 0, 0, 104],
      "AngioFlag": "N",
      "BitsAllocated": 16,
      "BitsStored": 16,
      "BodyPartExamined": "BRAIN",
      "Columns": 832,
      "EchoNumbers": 1,
      "EchoTime": 37.0,
      "EchoTrainLength": 104,
      "FlipAngle": 52.0,
      "HighBit": 15,
      "ImageOrientationPatient": [0.99640105825705, 0.04524880261024, 0.07167619525743, -0.0109563829679, 0.90725581694694, -0.4204364878174],
      "ImagePositionPatient": [-819.23322011523, -829.13239922719, 268.81433825118],
      "ImageType": [
        "ORIGINAL",
        "PRIMARY",
        "M",
        "MB",
        "ND",
        "MOSAIC"
],
      "ImagedNucleus": "1H",
      "ImagingFrequency": 123.258942,
      "InPlanePhaseEncodingDirection": "COL",
      "MRAcquisitionType": "2D",
      "MagneticFieldStrength": 3.0,
      "Manufacturer": "SIEMENS",
      "ManufacturerModelName": "Prisma_fit",
      "Modality": "MR",
      "NumberOfAverages": 1.0,
      "NumberOfPhaseEncodingSteps": 104,
      "PercentPhaseFieldOfView": 100.0,
      "PercentSampling": 100.0,
      "PerformedProcedureStepStartTime": "181247.884000",
      "PhotometricInterpretation": "MONOCHROME2",
      "PixelBandwidth": 2290.0,
      "PixelRepresentation": 0,
      "PixelSpacing": [2.0, 2.0],
      "ProtocolName": "func_task-bars",
      "RepetitionTime": 1490.0,
      "Rows": 832,
      "SAR": 0.06042449547591,
      "SamplesPerPixel": 1,
      "ScanOptions": "FS",
      "ScanningSequence": "EP",
      "SequenceName": "epfid2d1_104",
      "SequenceVariant": [
        "SK",
        "SS"
],
      "SeriesDescription": "func_task-bars",
      "SeriesNumber": 16,
      "SeriesTime": "183106.981000",
      "SliceLocation": -34.693963987819,
      "SliceThickness": 2.0,
      "SmallestImagePixelValue": 0,
      "SoftwareVersions": "syngo MR E11",
      "SpacingBetweenSlices": 1.9999999291612,
      "SpecificCharacterSet": "ISO_IR 100",
      "StudyID": "1",
      "StudyTime": "181247.816000",
      "TransmitCoilName": "Body",
      "VariableFlipAngleFlag": "N",
      "WindowCenterWidthExplanation": "Algo1",
      "dBdt": 0.0},
    "slices": {}
  },
  "time": {
    "samples": {
      "AcquisitionNumber": [1, 2, 3, 4, 5, 6, 7, 8, 9, 10, 11, 12, 13, 14, 15, 16, 17, 18, 19, 20, 21, 22, 23, 24, 25, 26, 27, 28, 29, 30, 31, 32, 33, 34, 35, 36, 37, 38, 39, 40, 41, 42, 43, 44, 45, 46, 47, 48, 49, 50, 51, 52, 53, 54, 55, 56, 57, 58, 59, 60, 61, 62, 63, 64, 65, 66, 67, 68, 69, 70, 71, 72, 73, 74, 75, 76, 77, 78, 79, 80, 81, 82, 83, 84, 85, 86, 87, 88, 89, 90, 91, 92, 93, 94, 95, 96, 97, 98, 99, 100, 101, 102, 103, 104, 105, 106, 107, 108, 109, 110, 111, 112, 113, 114, 115, 116, 117, 118, 119, 120, 121, 122, 123, 124, 125, 126, 127, 128, 129, 130, 131, 132, 133, 134, 135, 136, 137, 138, 139, 140, 141, 142, 143, 144, 145, 146, 147, 148, 149, 150, 151, 152, 153, 154, 155, 156, 157, 158, 159, 160, 161, 162, 163, 164, 165, 166, 167, 168, 169, 170, 171, 172, 173, 174, 175, 176, 177, 178, 179, 180, 181, 182, 183, 184, 185, 186, 187, 188, 189, 190, 191, 192, 193, 194, 195, 196, 197, 198, 199, 200, 201, 202],
      "AcquisitionTime": ["182935.755000", "182937.245000", "182938.735000", "182940.225000", "182941.715000", "182943.205000", "182944.695000", "182946.185000", "182947.675000", "182949.165000", "182950.655000", "182952.145000", "182953.635000", "182955.125000", "182956.615000", "182958.105000", "182959.595000", "183001.085000", "183002.575000", "183004.065000", "183005.555000", "183007.045000", "183008.535000", "183010.025000", "183011.515000", "183013.005000", "183014.495000", "183015.985000", "183017.475000", "183018.965000", "183020.455000", "183021.945000", "183023.435000", "183024.925000", "183026.415000", "183027.905000", "183029.395000", "183030.885000", "183032.375000", "183033.865000", "183035.355000", "183036.845000", "183038.335000", "183039.825000", "183041.315000", "183042.805000", "183044.295000", "183045.785000", "183047.275000", "183048.765000", "183050.255000", "183051.745000", "183053.235000", "183054.725000", "183056.215000", "183057.705000", "183059.195000", "183100.685000", "183102.175000", "183103.665000", "183105.155000", "183106.645000", "183108.135000", "183109.625000", "183111.115000", "183112.605000", "183114.095000", "183115.585000", "183117.075000", "183118.565000", "183120.055000", "183121.545000", "183123.035000", "183124.525000", "183126.015000", "183127.505000", "183128.995000", "183130.485000", "183131.975000", "183133.465000", "183134.955000", "183136.445000", "183137.935000", "183139.425000", "183140.915000", "183142.405000", "183143.895000", "183145.385000", "183146.875000", "183148.365000", "183149.855000", "183151.345000", "183152.835000", "183154.325000", "183155.815000", "183157.305000", "183158.795000", "183200.285000", "183201.775000", "183203.265000", "183204.755000", "183206.245000", "183207.735000", "183209.225000", "183210.715000", "183212.205000", "183213.695000", "183215.185000", "183216.675000", "183218.165000", "183219.655000", "183221.145000", "183222.635000", "183224.125000", "183225.615000", "183227.105000", "183228.595000", "183230.085000", "183231.575000", "183233.065000", "183234.555000", "183236.045000", "183237.535000", "183239.025000", "183240.515000", "183242.005000", "183243.495000", "183244.985000", "183246.475000", "183247.965000", "183249.455000", "183250.945000", "183252.435000", "183253.925000", "183255.415000", "183256.905000", "183258.395000", "183259.885000", "183301.375000", "183302.865000", "183304.355000", "183305.845000", "183307.335000", "183308.825000", "183310.315000", "183311.805000", "183313.295000", "183314.785000", "183316.275000", "183317.765000", "183319.255000", "183320.745000", "183322.235000", "183323.725000", "183325.215000", "183326.705000", "183328.195000", "183329.685000", "183331.175000", "183332.665000", "183334.155000", "183335.645000", "183337.135000", "183338.625000", "183340.115000", "183341.605000", "183343.095000", "183344.585000", "183346.075000", "183347.565000", "183349.055000", "183350.545000", "183352.035000", "183353.525000", "183355.015000", "183356.505000", "183357.995000", "183359.485000", "183400.975000", "183402.465000", "183403.955000", "183405.445000", "183406.935000", "183408.425000", "183409.915000", "183411.405000", "183412.895000", "183414.385000", "183415.875000", "183417.365000", "183418.855000", "183420.345000", "183421.835000", "183423.325000", "183424.815000", "183426.305000", "183427.795000", "183429.285000", "183430.775000", "183432.265000", "183433.755000", "183435.245000"],
      "ContentTime": ["183106.985000", "183106.988000", "183106.992000", "183106.995000", "183106.998000", "183107.002000", "183107.006000", "183107.009000", "183107.012000", "183107.016000", "183107.019000", "183107.022000", "183107.025000", "183107.029000", "183107.032000", "183107.035000", "183107.038000", "183107.042000", "183107.056000", "183107.059000", "183107.062000", "183107.066000", "183107.069000", "183107.072000", "183107.075000", "183107.079000", "183107.082000", "183107.085000", "183107.088000", "183107.092000", "183107.095000", "183107.098000", "183107.101000", "183107.105000", "183107.108000", "183107.111000", "183107.114000", "183126.952000", "183126.956000", "183126.959000", "183126.962000", "183126.965000", "183126.969000", "183126.972000", "183126.975000", "183126.978000", "183126.991000", "183126.994000", "183126.998000", "183127.001000", "183127.004000", "183127.007000", "183127.011000", "183127.014000", "183127.017000", "183127.028000", "183127.031000", "183146.953000", "183146.957000", "183146.960000", "183146.963000", "183146.967000", "183146.970000", "183146.973000", "183146.976000", "183146.979000", "183146.983000", "183146.986000", "183146.989000", "183146.992000", "183146.996000", "183147.000000", "183147.003000", "183147.006000", "183147.010000", "183147.013000", "183147.016000", "183147.019000", "183206.953000", "183206.957000", "183206.960000", "183206.963000", "183206.966000", "183206.970000", "183206.973000", "183206.976000", "183206.980000", "183206.983000", "183206.986000", "183206.989000", "183206.993000", "183206.996000", "183207.000000", "183207.004000", "183207.007000", "183207.010000", "183207.013000", "183207.017000", "183246.952000", "183246.956000", "183246.959000", "183246.962000", "183246.965000", "183246.969000", "183246.972000", "183246.975000", "183246.979000", "183246.982000", "183246.985000", "183246.988000", "183246.992000", "183246.995000", "183246.998000", "183247.002000", "183247.006000", "183247.009000", "183247.012000", "183247.016000", "183247.019000", "183247.022000", "183247.026000", "183247.029000", "183247.032000", "183247.035000", "183247.039000", "183247.042000", "183247.045000", "183247.048000", "183326.952000", "183326.956000", "183326.959000", "183326.962000", "183326.966000", "183326.969000", "183326.972000", "183326.976000", "183326.979000", "183326.982000", "183326.985000", "183326.989000", "183327.004000", "183327.008000", "183327.011000", "183327.014000", "183327.017000", "183327.021000", "183327.024000", "183327.027000", "183327.030000", "183327.034000", "183327.037000", "183327.040000", "183327.044000", "183327.047000", "183406.953000", "183406.957000", "183406.960000", "183406.963000", "183406.967000", "183406.970000", "183406.973000", "183406.976000", "183406.980000", "183406.983000", "183406.986000", "183406.989000", "183406.993000", "183406.996000", "183407.004000", "183407.007000", "183407.011000", "183407.014000", "183407.017000", "183407.021000", "183407.024000", "183407.027000", "183407.031000", "183407.034000", "183407.037000", "183407.040000", "183407.044000", "183437.139000", "183437.142000", "183437.146000", "183437.149000", "183437.152000", "183437.155000", "183437.159000", "183437.162000", "183437.165000", "183437.168000", "183437.172000", "183437.175000", "183437.178000", "183437.182000", "183437.185000", "183437.188000", "183437.191000", "183437.195000", "183437.198000", "183437.201000", "183437.204000"],
      "InstanceCreationTime": ["183106.985000", "183106.988000", "183106.992000", "183106.995000", "183106.998000", "183107.002000", "183107.006000", "183107.009000", "183107.012000", "183107.016000", "183107.019000", "183107.022000", "183107.025000", "183107.029000", "183107.032000", "183107.035000", "183107.038000", "183107.042000", "183107.056000", "183107.059000", "183107.062000", "183107.066000", "183107.069000", "183107.072000", "183107.075000", "183107.079000", "183107.082000", "183107.085000", "183107.088000", "183107.092000", "183107.095000", "183107.098000", "183107.101000", "183107.105000", "183107.108000", "183107.111000", "183107.114000", "183126.952000", "183126.956000", "183126.959000", "183126.962000", "183126.965000", "183126.969000", "183126.972000", "183126.975000", "183126.978000", "183126.991000", "183126.994000", "183126.998000", "183127.001000", "183127.004000", "183127.007000", "183127.011000", "183127.014000", "183127.017000", "183127.028000", "183127.031000", "183146.953000", "183146.957000", "183146.960000", "183146.963000", "183146.967000", "183146.970000", "183146.973000", "183146.976000", "183146.979000", "183146.983000", "183146.986000", "183146.989000", "183146.992000", "183146.996000", "183147.000000", "183147.003000", "183147.006000", "183147.010000", "183147.013000", "183147.016000", "183147.019000", "183206.953000", "183206.957000", "183206.960000", "183206.963000", "183206.966000", "183206.970000", "183206.973000", "183206.976000", "183206.980000", "183206.983000", "183206.986000", "183206.989000", "183206.993000", "183206.996000", "183207.000000", "183207.004000", "183207.007000", "183207.010000", "183207.013000", "183207.017000", "183246.952000", "183246.956000", "183246.959000", "183246.962000", "183246.965000", "183246.969000", "183246.972000", "183246.975000", "183246.979000", "183246.982000", "183246.985000", "183246.988000", "183246.992000", "183246.995000", "183246.998000", "183247.002000", "183247.006000", "183247.009000", "183247.012000", "183247.016000", "183247.019000", "183247.022000", "183247.026000", "183247.029000", "183247.032000", "183247.035000", "183247.039000", "183247.042000", "183247.045000", "183247.048000", "183326.952000", "183326.956000", "183326.959000", "183326.962000", "183326.966000", "183326.969000", "183326.972000", "183326.976000", "183326.979000", "183326.982000", "183326.985000", "183326.989000", "183327.004000", "183327.008000", "183327.011000", "183327.014000", "183327.017000", "183327.021000", "183327.024000", "183327.027000", "183327.030000", "183327.034000", "183327.037000", "183327.040000", "183327.044000", "183327.047000", "183406.953000", "183406.957000", "183406.960000", "183406.963000", "183406.967000", "183406.970000", "183406.973000", "183406.976000", "183406.980000", "183406.983000", "183406.986000", "183406.989000", "183406.993000", "183406.996000", "183407.004000", "183407.007000", "183407.011000", "183407.014000", "183407.017000", "183407.021000", "183407.024000", "183407.027000", "183407.031000", "183407.034000", "183407.037000", "183407.040000", "183407.044000", "183437.139000", "183437.142000", "183437.146000", "183437.149000", "183437.152000", "183437.155000", "183437.159000", "183437.162000", "183437.165000", "183437.168000", "183437.172000", "183437.175000", "183437.178000", "183437.182000", "183437.185000", "183437.188000", "183437.191000", "183437.195000", "183437.198000", "183437.201000", "183437.204000"],
      "InstanceNumber": [1, 2, 3, 4, 5, 6, 7, 8, 9, 10, 11, 12, 13, 14, 15, 16, 17, 18, 19, 20, 21, 22, 23, 24, 25, 26, 27, 28, 29, 30, 31, 32, 33, 34, 35, 36, 37, 38, 39, 40, 41, 42, 43, 44, 45, 46, 47, 48, 49, 50, 51, 52, 53, 54, 55, 56, 57, 58, 59, 60, 61, 62, 63, 64, 65, 66, 67, 68, 69, 70, 71, 72, 73, 74, 75, 76, 77, 78, 79, 80, 81, 82, 83, 84, 85, 86, 87, 88, 89, 90, 91, 92, 93, 94, 95, 96, 97, 98, 99, 100, 101, 102, 103, 104, 105, 106, 107, 108, 109, 110, 111, 112, 113, 114, 115, 116, 117, 118, 119, 120, 121, 122, 123, 124, 125, 126, 127, 128, 129, 130, 131, 132, 133, 134, 135, 136, 137, 138, 139, 140, 141, 142, 143, 144, 145, 146, 147, 148, 149, 150, 151, 152, 153, 154, 155, 156, 157, 158, 159, 160, 161, 162, 163, 164, 165, 166, 167, 168, 169, 170, 171, 172, 173, 174, 175, 176, 177, 178, 179, 180, 181, 182, 183, 184, 185, 186, 187, 188, 189, 190, 191, 192, 193, 194, 195, 196, 197, 198, 199, 200, 201, 202],
      "LargestImagePixelValue": [43517, 42777, 43068, 42393, 41703, 40419, 41044, 40572, 41852, 41815, 42040, 41028, 39455, 40349, 40046, 41416, 39881, 40350, 41793, 41831, 42106, 42699, 42821, 43036, 42263, 42404, 41815, 43045, 41135, 41832, 42354, 42602, 43548, 41881, 42459, 42144, 42859, 42388, 42859, 42881, 43101, 42397, 43286, 41110, 42376, 42555, 42862, 41781, 42641, 42568, 42274, 42380, 42243, 42580, 42210, 43189, 41813, 42316, 42591, 42842, 41332, 41782, 42807, 41533, 41597, 42157, 42616, 41678, 41471, 42634, 42680, 42069, 42684, 42147, 42890, 42122, 41431, 42051, 41770, 42166, 41539, 41420, 41587, 41350, 41523, 41561, 41148, 42070, 41734, 40939, 43217, 40613, 40864, 41069, 40552, 41825, 41785, 41846, 41988, 41366, 40737, 41307, 41550, 40854, 41472, 41139, 39403, 41232, 40883, 41275, 42063, 40456, 40514, 41028, 40750, 41080, 40367, 40472, 40537, 42917, 41691, 41443, 41420, 41510, 40931, 40828, 42531, 41950, 40836, 39522, 40060, 40282, 41192, 40893, 40682, 42357, 42188, 42228, 41125, 41723, 41383, 41703, 41756, 41878, 43091, 42064, 42054, 42809, 41404, 42613, 43960, 41336, 40305, 40442, 37628, 38548, 38765, 39751, 41116, 41840, 41547, 41166, 40734, 40736, 40514, 40303, 39489, 41614, 41449, 41208, 41540, 41843, 40335, 40193, 40733, 41899, 42050, 41250, 41513, 42442, 41552, 42312, 41407, 42288, 42362, 41723, 40633, 39585, 38392, 38335, 39034, 39111, 40424, 39405, 38314, 38924, 38189, 38803, 38527, 39098, 39145, 38923],
      "WindowCenter": [10507.0, 10455.0, 10442.0, 10437.0, 10421.0, 10338.0, 10339.0, 10372.0, 10434.0, 10419.0, 10393.0, 10370.0, 10356.0, 10407.0, 10392.0, 10344.0, 10305.0, 10320.0, 10338.0, 10328.0, 10338.0, 10345.0, 10362.0, 10380.0, 10402.0, 10421.0, 10419.0, 10423.0, 10380.0, 10373.0, 10385.0, 10408.0, 10426.0, 10409.0, 10411.0, 10414.0, 10427.0, 10413.0, 10405.0, 10408.0, 10417.0, 10411.0, 10425.0, 10405.0, 10415.0, 10422.0, 10435.0, 10422.0, 10420.0, 10420.0, 10424.0, 10422.0, 10415.0, 10414.0, 10407.0, 10417.0, 10390.0, 10397.0, 10419.0, 10427.0, 10411.0, 10424.0, 10442.0, 10423.0, 10411.0, 10416.0, 10414.0, 10397.0, 10398.0, 10410.0, 10420.0, 10400.0, 10410.0, 10407.0, 10423.0, 10418.0, 10410.0, 10417.0, 10424.0, 10423.0, 10419.0, 10439.0, 10445.0, 10448.0, 10454.0, 10445.0, 10431.0, 10437.0, 10428.0, 10416.0, 10428.0, 10399.0, 10413.0, 10404.0, 10405.0, 10427.0, 10434.0, 10428.0, 10426.0, 10407.0, 10400.0, 10408.0, 10406.0, 10391.0, 10388.0, 10389.0, 10372.0, 10410.0, 10417.0, 10434.0, 10444.0, 10424.0, 10418.0, 10433.0, 10439.0, 10446.0, 10432.0, 10424.0, 10430.0, 10440.0, 10412.0, 10421.0, 10423.0, 10442.0, 10428.0, 10426.0, 10441.0, 10426.0, 10403.0, 10394.0, 10402.0, 10407.0, 10412.0, 10406.0, 10399.0, 10411.0, 10402.0, 10428.0, 10436.0, 10463.0, 10468.0, 10450.0, 10431.0, 10435.0, 10430.0, 10405.0, 10395.0, 10406.0, 10383.0, 10394.0, 10428.0, 10399.0, 10378.0, 10373.0, 10348.0, 10360.0, 10372.0, 10401.0, 10425.0, 10444.0, 10442.0, 10420.0, 10389.0, 10375.0, 10357.0, 10342.0, 10327.0, 10365.0, 10391.0, 10415.0, 10415.0, 10380.0, 10332.0, 10319.0, 10316.0, 10340.0, 10374.0, 10401.0, 10410.0, 10397.0, 10360.0, 10369.0, 10369.0, 10370.0, 10369.0, 10348.0, 10335.0, 10324.0, 10321.0, 10329.0, 10342.0, 10362.0, 10399.0, 10419.0, 10405.0, 10380.0, 10358.0, 10354.0, 10353.0, 10368.0, 10377.0, 10395.0],
      "WindowWidth": [22299.0, 22160.0, 22119.0, 22109.0, 22069.0, 21881.0, 21878.0, 21961.0, 22101.0, 22071.0, 22007.0, 21953.0, 21927.0, 22036.0, 22007.0, 21889.0, 21805.0, 21840.0, 21874.0, 21848.0, 21868.0, 21888.0, 21927.0, 21970.0, 22025.0, 22067.0, 22067.0, 22079.0, 21978.0, 21957.0, 21982.0, 22034.0, 22077.0, 22044.0, 22042.0, 22053.0, 22080.0, 22057.0, 22030.0, 22034.0, 22055.0, 22044.0, 22073.0, 22036.0, 22054.0, 22072.0, 22098.0, 22070.0, 22065.0, 22061.0, 22078.0, 22070.0, 22054.0, 22055.0, 22039.0, 22059.0, 22000.0, 22017.0, 22071.0, 22088.0, 22052.0, 22076.0, 22118.0, 22081.0, 22050.0, 22062.0, 22058.0, 22018.0, 22022.0, 22042.0, 22070.0, 22022.0, 22041.0, 22041.0, 22080.0, 22074.0, 22050.0, 22065.0, 22082.0, 22075.0, 22072.0, 22121.0, 22131.0, 22137.0, 22149.0, 22130.0, 22096.0, 22110.0, 22090.0, 22067.0, 22089.0, 22026.0, 22055.0, 22041.0, 22034.0, 22086.0, 22104.0, 22090.0, 22082.0, 22043.0, 22026.0, 22050.0, 22048.0, 22013.0, 22003.0, 22006.0, 21972.0, 22048.0, 22069.0, 22105.0, 22124.0, 22092.0, 22071.0, 22105.0, 22123.0, 22138.0, 22105.0, 22086.0, 22100.0, 22116.0, 22052.0, 22073.0, 22076.0, 22124.0, 22092.0, 22087.0, 22120.0, 22084.0, 22031.0, 22018.0, 22039.0, 22042.0, 22052.0, 22047.0, 22030.0, 22049.0, 22028.0, 22085.0, 22109.0, 22169.0, 22181.0, 22137.0, 22096.0, 22102.0, 22081.0, 22034.0, 22005.0, 22028.0, 21981.0, 22002.0, 22083.0, 22026.0, 21978.0, 21965.0, 21916.0, 21937.0, 21966.0, 22029.0, 22077.0, 22118.0, 22121.0, 22073.0, 22002.0, 21969.0, 21926.0, 21894.0, 21863.0, 21939.0, 22001.0, 22057.0, 22053.0, 21974.0, 21865.0, 21836.0, 21829.0, 21878.0, 21955.0, 22026.0, 22043.0, 22002.0, 21921.0, 21941.0, 21948.0, 21947.0, 21950.0, 21902.0, 21871.0, 21852.0, 21850.0, 21868.0, 21895.0, 21943.0, 22027.0, 22080.0, 22051.0, 21986.0, 21935.0, 21921.0, 21921.0, 21952.0, 21972.0, 22013.0]
    },
    "slices": {}
  }
}