{
  "AcquisitionMatrixPE": 104,
  "AcquisitionNumber": 1,
  "AcquisitionTime": "18:17:23.940000",
  "BandwidthPerPixelPhaseEncode": 17.17,
  "BaseResolution": 104,
  "BodyPartExamined": "BRAIN",
  "CoilString": "HC1-7;NC1_2",
  "ConsistencyInfo": "N4_VE11C_LATEST_20160120",
  "ConversionSoftware": "dcm2niix",
  "ConversionSoftwareVersion": "v1.0.20190902",
  "DerivedVendorReportedEchoSpacing": 0.000560011,
  "DeviceSerialNumber": "167006",
  "DwellTime": 2.1e-06,
  "EchoTime": 0.037,
  "EchoTrainLength": 104,
  "EffectiveEchoSpacing": 0.000560011,
  "FlipAngle": 52,
  "ImageComments": "Unaliased_MB4_PE3_LB",
  "ImageOrientationPatientDICOM": [0.996401, 0.0452488, 0.0716762, -0.0109564, 0.907256, -0.420437],
  "ImageType": [
    "ORIGINAL",
    "PRIMARY",
    "M",
    "MB",
    "ND",
    "MOSAIC"
],
  "ImagingFrequency": 123.259,
  "InPlanePhaseEncodingDirectionDICOM": "COL",
  "InstitutionAddress": "Chemin_Queen-Mary_4565_Montreal_District_CA_H3W_1W5",
  "InstitutionName": "IUGM",
  "InstitutionalDepartmentName": "Department",
  "MRAcquisitionType": "2D",
  "MagneticFieldStrength": 3,
  "Manufacturer": "Siemens",
  "ManufacturersModelName": "Prisma_fit",
  "Modality": "MR",
  "MultibandAccelerationFactor": 4,
  "PartialFourier": 1,
  "PatientPosition": "HFS",
  "PercentPhaseFOV": 100,
  "PhaseEncodingDirection": "j",
  "PhaseEncodingSteps": 104,
  "PhaseResolution": 1,
  "PixelBandwidth": 2290,
  "ProcedureStepDescription": "localizers_retinotopy",
  "ProtocolName": "func_task-wedges",
  "PulseSequenceDetails": "%CustomerSeq%_cmrr_mbep2d_bold",
  "ReceiveCoilActiveElements": "HC1-7;NC1,2",
  "ReceiveCoilName": "HeadNeck_64",
  "ReconMatrixPE": 104,
  "RepetitionTime": 1.49,
  "SAR": 0.0604245,
  "ScanOptions": "FS",
  "ScanningSequence": "EP",
  "SequenceName": "epfid2d1_104",
  "SequenceVariant": "SK_SS",
  "SeriesDescription": "func_task-wedges",
  "SeriesNumber": 10,
  "ShimSetting": [637, -7190, -8827, 589, 76, 2, -87, 17],
  "SliceThickness": 2,
  "SliceTiming": [0, 0.785, 0.0975, 0.8825, 0.195, 0.98, 0.295, 1.0775, 0.3925, 1.175, 0.49, 1.275, 0.5875, 1.3725, 0.685, 0, 0.785, 0.0975, 0.8825, 0.195, 0.98, 0.295, 1.0775, 0.3925, 1.175, 0.49, 1.275, 0.5875, 1.3725, 0.685, 0, 0.785, 0.0975, 0.8825, 0.195, 0.98, 0.295, 1.0775, 0.3925, 1.175, 0.49, 1.275, 0.5875, 1.3725, 0.685, 0, 0.785, 0.0975, 0.8825, 0.195, 0.98, 0.295, 1.0775, 0.3925, 1.175, 0.49, 1.275, 0.5875, 1.3725, 0.685],
  "SoftwareVersions": "syngo_MR_E11",
  "SpacingBetweenSlices": 2,
  "StationName": "MRC35049",
  "TaskName": "wedges",
  "TotalReadoutTime": 0.0576811,
  "TxRefAmp": 294.532,
  "WipMemBlock": "d02ab8fc-eec5-4863-9737-846b63ff4a89||Sequence: R016 ve11c/master r/e634e98; Dec 19 2017 11:00:25 by eja",
  "dcmmeta_affine": [
    [-1.9928021430969238, -0.021912766620516777, 0.16810578107833862, 104.08650970458984],
    [-0.09049760550260544, 1.8145116567611694, -0.8362760543823242, -51.18566131591797],
    [0.14335238933563232, 0.8408730030059814, 1.808972716331482, -71.69306945800781],
    [0.0, 0.0, 0.0, 1.0]
],
  "dcmmeta_reorient_transform": [
    [0.0, -1.0, 0.0, 103.0],
    [1.0, 0.0, 0.0, 0.0],
    [0.0, 0.0, 1.0, 0.0],
    [0.0, 0.0, 0.0, 1.0]
],
  "dcmmeta_shape": [104, 104, 60, 202],
  "dcmmeta_slice_dim": 2,
  "dcmmeta_version": 0.6,
  "global": {
    "const": {
      "AcquisitionMatrix": [104, 0, 0, 104],
      "AngioFlag": "N",
      "BitsAllocated": 16,
      "BitsStored": 16,
      "BodyPartExamined": "BRAIN",
      "Columns": 832,
      "EchoNumbers": 1,
      "EchoTime": 37.0,
      "EchoTrainLength": 104,
      "FlipAngle": 52.0,
      "HighBit": 15,
      "ImageOrientationPatient": [0.99640105825705, 0.04524880261024, 0.07167619525743, -0.0109563829679, 0.90725581694694, -0.4204364878174],
      "ImagePositionPatient": [-819.23322011523, -829.13239922719, 268.81433825118],
      "ImageType": [
        "ORIGINAL",
        "PRIMARY",
        "M",
        "MB",
        "ND",
        "MOSAIC"
],
      "ImagedNucleus": "1H",
      "ImagingFrequency": 123.258938,
      "InPlanePhaseEncodingDirection": "COL",
      "MRAcquisitionType": "2D",
      "MagneticFieldStrength": 3.0,
      "Manufacturer": "SIEMENS",
      "ManufacturerModelName": "Prisma_fit",
      "Modality": "MR",
      "NumberOfAverages": 1.0,
      "NumberOfPhaseEncodingSteps": 104,
      "PercentPhaseFieldOfView": 100.0,
      "PercentSampling": 100.0,
      "PerformedProcedureStepStartTime": "181247.884000",
      "PhotometricInterpretation": "MONOCHROME2",
      "PixelBandwidth": 2290.0,
      "PixelRepresentation": 0,
      "PixelSpacing": [2.0, 2.0],
      "ProtocolName": "func_task-wedges",
      "RepetitionTime": 1490.0,
      "Rows": 832,
      "SAR": 0.06042449547591,
      "SamplesPerPixel": 1,
      "ScanOptions": "FS",
      "ScanningSequence": "EP",
      "SequenceName": "epfid2d1_104",
      "SequenceVariant": [
        "SK",
        "SS"
],
      "SeriesDescription": "func_task-wedges",
      "SeriesNumber": 10,
      "SeriesTime": "181825.843000",
      "SliceLocation": -34.693963987819,
      "SliceThickness": 2.0,
      "SmallestImagePixelValue": 0,
      "SoftwareVersions": "syngo MR E11",
      "SpacingBetweenSlices": 1.9999999291612,
      "SpecificCharacterSet": "ISO_IR 100",
      "StudyID": "1",
      "StudyTime": "181247.816000",
      "TransmitCoilName": "Body",
      "VariableFlipAngleFlag": "N",
      "WindowCenterWidthExplanation": "Algo1",
      "dBdt": 0.0},
    "slices": {}
  },
  "time": {
    "samples": {
      "AcquisitionNumber": [1, 2, 3, 4, 5, 6, 7, 8, 9, 10, 11, 12, 13, 14, 15, 16, 17, 18, 19, 20, 21, 22, 23, 24, 25, 26, 27, 28, 29, 30, 31, 32, 33, 34, 35, 36, 37, 38, 39, 40, 41, 42, 43, 44, 45, 46, 47, 48, 49, 50, 51, 52, 53, 54, 55, 56, 57, 58, 59, 60, 61, 62, 63, 64, 65, 66, 67, 68, 69, 70, 71, 72, 73, 74, 75, 76, 77, 78, 79, 80, 81, 82, 83, 84, 85, 86, 87, 88, 89, 90, 91, 92, 93, 94, 95, 96, 97, 98, 99, 100, 101, 102, 103, 104, 105, 106, 107, 108, 109, 110, 111, 112, 113, 114, 115, 116, 117, 118, 119, 120, 121, 122, 123, 124, 125, 126, 127, 128, 129, 130, 131, 132, 133, 134, 135, 136, 137, 138, 139, 140, 141, 142, 143, 144, 145, 146, 147, 148, 149, 150, 151, 152, 153, 154, 155, 156, 157, 158, 159, 160, 161, 162, 163, 164, 165, 166, 167, 168, 169, 170, 171, 172, 173, 174, 175, 176, 177, 178, 179, 180, 181, 182, 183, 184, 185, 186, 187, 188, 189, 190, 191, 192, 193, 194, 195, 196, 197, 198, 199, 200, 201, 202],
      "AcquisitionTime": ["181723.940000", "181725.430000", "181726.920000", "181728.410000", "181729.900000", "181731.390000", "181732.880000", "181734.370000", "181735.860000", "181737.350000", "181738.840000", "181740.330000", "181741.820000", "181743.310000", "181744.800000", "181746.290000", "181747.780000", "181749.270000", "181750.760000", "181752.250000", "181753.740000", "181755.230000", "181756.720000", "181758.210000", "181759.700000", "181801.190000", "181802.680000", "181804.170000", "181805.660000", "181807.150000", "181808.640000", "181810.130000", "181811.620000", "181813.110000", "181814.600000", "181816.090000", "181817.580000", "181819.070000", "181820.560000", "181822.050000", "181823.540000", "181825.030000", "181826.520000", "181828.010000", "181829.500000", "181830.990000", "181832.480000", "181833.970000", "181835.460000", "181836.950000", "181838.440000", "181839.930000", "181841.420000", "181842.910000", "181844.400000", "181845.890000", "181847.380000", "181848.870000", "181850.360000", "181851.850000", "181853.340000", "181854.830000", "181856.320000", "181857.810000", "181859.300000", "181900.790000", "181902.280000", "181903.770000", "181905.260000", "181906.750000", "181908.240000", "181909.730000", "181911.220000", "181912.710000", "181914.200000", "181915.690000", "181917.180000", "181918.670000", "181920.160000", "181921.650000", "181923.140000", "181924.630000", "181926.120000", "181927.610000", "181929.100000", "181930.590000", "181932.080000", "181933.570000", "181935.060000", "181936.550000", "181938.040000", "181939.530000", "181941.020000", "181942.510000", "181944.000000", "181945.490000", "181946.980000", "181948.470000", "181949.960000", "181951.450000", "181952.940000", "181954.430000", "181955.920000", "181957.410000", "181958.900000", "182000.390000", "182001.880000", "182003.370000", "182004.860000", "182006.350000", "182007.840000", "182009.330000", "182010.820000", "182012.310000", "182013.800000", "182015.290000", "182016.780000", "182018.270000", "182019.760000", "182021.250000", "182022.740000", "182024.230000", "182025.720000", "182027.210000", "182028.700000", "182030.190000", "182031.680000", "182033.170000", "182034.660000", "182036.150000", "182037.640000", "182039.130000", "182040.620000", "182042.110000", "182043.600000", "182045.090000", "182046.580000", "182048.070000", "182049.560000", "182051.050000", "182052.540000", "182054.030000", "182055.520000", "182057.010000", "182058.500000", "182059.990000", "182101.480000", "182102.970000", "182104.460000", "182105.950000", "182107.440000", "182108.930000", "182110.420000", "182111.910000", "182113.400000", "182114.890000", "182116.380000", "182117.870000", "182119.360000", "182120.850000", "182122.340000", "182123.830000", "182125.320000", "182126.810000", "182128.300000", "182129.790000", "182131.280000", "182132.770000", "182134.260000", "182135.750000", "182137.240000", "182138.730000", "182140.220000", "182141.710000", "182143.200000", "182144.690000", "182146.180000", "182147.670000", "182149.160000", "182150.650000", "182152.140000", "182153.630000", "182155.120000", "182156.610000", "182158.100000", "182159.590000", "182201.080000", "182202.570000", "182204.060000", "182205.550000", "182207.040000", "182208.530000", "182210.020000", "182211.510000", "182213.000000", "182214.490000", "182215.980000", "182217.470000", "182218.960000", "182220.450000", "182221.940000", "182223.430000"],
      "ContentTime": ["181825.846000", "181825.850000", "181825.853000", "181825.856000", "181825.859000", "181825.863000", "181825.866000", "181825.869000", "181825.872000", "181845.795000", "181845.799000", "181845.802000", "181845.805000", "181845.808000", "181845.812000", "181845.815000", "181845.818000", "181845.821000", "181845.825000", "181845.828000", "181845.831000", "181845.835000", "181845.838000", "181845.841000", "181845.844000", "181845.848000", "181845.851000", "181845.854000", "181845.858000", "181905.795000", "181905.799000", "181905.802000", "181905.805000", "181905.808000", "181905.811000", "181905.815000", "181905.818000", "181905.821000", "181905.824000", "181905.828000", "181905.831000", "181905.834000", "181905.837000", "181905.841000", "181905.844000", "181905.847000", "181905.850000", "181905.854000", "181905.857000", "181925.795000", "181925.799000", "181925.802000", "181925.805000", "181925.808000", "181925.812000", "181925.815000", "181925.819000", "181925.822000", "181925.825000", "181925.828000", "181925.832000", "181925.835000", "181925.838000", "181925.841000", "181925.844000", "181925.848000", "181925.851000", "181925.863000", "181925.867000", "181925.870000", "181945.795000", "181945.799000", "181945.802000", "181945.805000", "181945.809000", "181945.812000", "181945.815000", "181945.818000", "181945.822000", "181945.825000", "181945.828000", "181945.831000", "181945.835000", "181945.838000", "181945.841000", "181945.844000", "181945.847000", "181945.851000", "181945.854000", "181945.857000", "182025.796000", "182025.800000", "182025.803000", "182025.806000", "182025.810000", "182025.813000", "182025.816000", "182025.819000", "182025.823000", "182025.826000", "182025.829000", "182025.832000", "182025.836000", "182025.839000", "182025.842000", "182025.846000", "182025.849000", "182025.852000", "182025.855000", "182025.859000", "182025.862000", "182025.865000", "182025.868000", "182025.872000", "182025.875000", "182025.878000", "182025.882000", "182025.885000", "182025.888000", "182025.891000", "182025.895000", "182105.795000", "182105.799000", "182105.802000", "182105.805000", "182105.809000", "182105.812000", "182105.815000", "182105.818000", "182105.822000", "182105.825000", "182105.828000", "182105.831000", "182105.834000", "182105.838000", "182105.841000", "182105.844000", "182105.847000", "182105.851000", "182105.854000", "182105.857000", "182105.861000", "182105.864000", "182105.867000", "182105.871000", "182105.874000", "182105.878000", "182105.881000", "182145.795000", "182145.799000", "182145.802000", "182145.805000", "182145.809000", "182145.812000", "182145.816000", "182145.819000", "182145.822000", "182145.825000", "182145.829000", "182145.832000", "182145.846000", "182145.849000", "182145.853000", "182145.856000", "182145.859000", "182145.863000", "182145.866000", "182145.869000", "182145.873000", "182145.876000", "182145.879000", "182145.882000", "182145.886000", "182145.889000", "182145.892000", "182225.183000", "182225.187000", "182225.190000", "182225.193000", "182225.197000", "182225.200000", "182225.203000", "182225.207000", "182225.210000", "182225.213000", "182225.217000", "182225.220000", "182225.224000", "182225.227000", "182225.230000", "182225.234000", "182225.237000", "182225.240000", "182225.244000", "182225.247000", "182225.250000", "182225.254000", "182225.257000", "182225.260000", "182225.263000", "182225.267000", "182225.270000"],
      "InstanceCreationTime": ["181825.846000", "181825.850000", "181825.853000", "181825.856000", "181825.859000", "181825.863000", "181825.866000", "181825.869000", "181825.872000", "181845.795000", "181845.799000", "181845.802000", "181845.805000", "181845.808000", "181845.812000", "181845.815000", "181845.818000", "181845.821000", "181845.825000", "181845.828000", "181845.831000", "181845.835000", "181845.838000", "181845.841000", "181845.844000", "181845.848000", "181845.851000", "181845.854000", "181845.858000", "181905.795000", "181905.799000", "181905.802000", "181905.805000", "181905.808000", "181905.811000", "181905.815000", "181905.818000", "181905.821000", "181905.824000", "181905.828000", "181905.831000", "181905.834000", "181905.837000", "181905.841000", "181905.844000", "181905.847000", "181905.850000", "181905.854000", "181905.857000", "181925.795000", "181925.799000", "181925.802000", "181925.805000", "181925.808000", "181925.812000", "181925.815000", "181925.819000", "181925.822000", "181925.825000", "181925.828000", "181925.832000", "181925.835000", "181925.838000", "181925.841000", "181925.844000", "181925.848000", "181925.851000", "181925.863000", "181925.867000", "181925.870000", "181945.795000", "181945.799000", "181945.802000", "181945.805000", "181945.809000", "181945.812000", "181945.815000", "181945.818000", "181945.822000", "181945.825000", "181945.828000", "181945.831000", "181945.835000", "181945.838000", "181945.841000", "181945.844000", "181945.847000", "181945.851000", "181945.854000", "181945.857000", "182025.796000", "182025.800000", "182025.803000", "182025.806000", "182025.810000", "182025.813000", "182025.816000", "182025.819000", "182025.823000", "182025.826000", "182025.829000", "182025.832000", "182025.836000", "182025.839000", "182025.842000", "182025.846000", "182025.849000", "182025.852000", "182025.855000", "182025.859000", "182025.862000", "182025.865000", "182025.868000", "182025.872000", "182025.875000", "182025.878000", "182025.882000", "182025.885000", "182025.888000", "182025.891000", "182025.895000", "182105.795000", "182105.799000", "182105.802000", "182105.805000", "182105.809000", "182105.812000", "182105.815000", "182105.818000", "182105.822000", "182105.825000", "182105.828000", "182105.831000", "182105.834000", "182105.838000", "182105.841000", "182105.844000", "182105.847000", "182105.851000", "182105.854000", "182105.857000", "182105.861000", "182105.864000", "182105.867000", "182105.871000", "182105.874000", "182105.878000", "182105.881000", "182145.795000", "182145.799000", "182145.802000", "182145.805000", "182145.809000", "182145.812000", "182145.816000", "182145.819000", "182145.822000", "182145.825000", "182145.829000", "182145.832000", "182145.846000", "182145.849000", "182145.853000", "182145.856000", "182145.859000", "182145.863000", "182145.866000", "182145.869000", "182145.873000", "182145.876000", "182145.879000", "182145.882000", "182145.886000", "182145.889000", "182145.892000", "182225.183000", "182225.187000", "182225.190000", "182225.193000", "182225.197000", "182225.200000", "182225.203000", "182225.207000", "182225.210000", "182225.213000", "182225.217000", "182225.220000", "182225.224000", "182225.227000", "182225.230000", "182225.234000", "182225.237000", "182225.240000", "182225.244000", "182225.247000", "182225.250000", "182225.254000", "182225.257000", "182225.260000", "182225.263000", "182225.267000", "182225.270000"],
      "InstanceNumber": [1, 2, 3, 4, 5, 6, 7, 8, 9, 10, 11, 12, 13, 14, 15, 16, 17, 18, 19, 20, 21, 22, 23, 24, 25, 26, 27, 28, 29, 30, 31, 32, 33, 34, 35, 36, 37, 38, 39, 40, 41, 42, 43, 44, 45, 46, 47, 48, 49, 50, 51, 52, 53, 54, 55, 56, 57, 58, 59, 60, 61, 62, 63, 64, 65, 66, 67, 68, 69, 70, 71, 72, 73, 74, 75, 76, 77, 78, 79, 80, 81, 82, 83, 84, 85, 86, 87, 88, 89, 90, 91, 92, 93, 94, 95, 96, 97, 98, 99, 100, 101, 102, 103, 104, 105, 106, 107, 108, 109, 110, 111, 112, 113, 114, 115, 116, 117, 118, 119, 120, 121, 122, 123, 124, 125, 126, 127, 128, 129, 130, 131, 132, 133, 134, 135, 136, 137, 138, 139, 140, 141, 142, 143, 144, 145, 146, 147, 148, 149, 150, 151, 152, 153, 154, 155, 156, 157, 158, 159, 160, 161, 162, 163, 164, 165, 166, 167, 168, 169, 170, 171, 172, 173, 174, 175, 176, 177, 178, 179, 180, 181, 182, 183, 184, 185, 186, 187, 188, 189, 190, 191, 192, 193, 194, 195, 196, 197, 198, 199, 200, 201, 202],
      "LargestImagePixelValue": [41927, 41006, 41672, 39526, 38214, 39146, 39659, 39271, 39786, 38992, 39127, 40128, 39806, 39465, 38868, 39268, 39881, 39357, 40224, 40104, 39837, 40141, 39527, 39286, 39553, 39638, 39852, 40000, 39758, 39666, 39462, 39575, 39551, 39656, 39948, 39770, 39316, 36802, 36635, 36873, 38077, 39654, 37998, 36725, 37444, 36753, 37267, 37817, 36328, 37176, 37351, 39441, 39098, 39101, 39591, 39107, 38050, 37974, 38651, 39001, 38102, 37271, 39451, 38542, 39394, 39624, 39308, 38652, 37028, 36673, 37141, 37170, 36985, 36986, 37550, 36961, 37227, 37524, 40289, 36987, 38867, 38015, 36679, 36450, 39594, 36663, 36620, 37164, 36873, 36929, 38377, 36862, 37038, 37095, 36811, 37400, 36654, 39699, 36946, 36642, 37374, 39271, 40102, 37017, 36934, 37311, 37246, 36862, 37270, 37542, 39091, 37191, 37233, 37054, 37247, 36921, 37484, 37526, 37164, 36916, 37729, 36455, 47514, 40364, 36874, 39331, 36399, 40670, 37065, 36727, 38778, 42054, 35843, 36034, 36546, 36306, 35841, 36355, 37114, 40287, 36866, 36672, 39573, 37776, 36189, 36892, 36585, 36508, 40252, 36786, 36674, 37563, 38311, 37132, 37771, 36995, 37091, 37026, 36635, 36237, 36419, 36160, 38009, 39813, 39446, 39422, 38044, 38107, 38188, 36836, 37053, 37255, 40625, 36925, 38149, 38419, 38194, 36466, 37156, 36768, 37302, 36534, 36774, 38055, 37557, 37015, 36777, 37153, 36627, 38648, 38664, 37927, 38474, 38851, 37952, 38367, 39265, 38498, 37602, 38993, 37355, 36749],
      "WindowCenter": [10482.0, 10447.0, 10429.0, 10385.0, 10370.0, 10395.0, 10403.0, 10398.0, 10385.0, 10353.0, 10353.0, 10361.0, 10352.0, 10337.0, 10331.0, 10357.0, 10380.0, 10375.0, 10379.0, 10371.0, 10370.0, 10367.0, 10375.0, 10379.0, 10388.0, 10395.0, 10388.0, 10387.0, 10385.0, 10378.0, 10373.0, 10371.0, 10372.0, 10372.0, 10385.0, 10395.0, 10400.0, 10378.0, 10367.0, 10375.0, 10401.0, 10417.0, 10392.0, 10369.0, 10372.0, 10375.0, 10391.0, 10399.0, 10380.0, 10382.0, 10388.0, 10401.0, 10385.0, 10375.0, 10374.0, 10367.0, 10355.0, 10362.0, 10371.0, 10384.0, 10366.0, 10361.0, 10389.0, 10386.0, 10417.0, 10427.0, 10404.0, 10391.0, 10367.0, 10367.0, 10383.0, 10381.0, 10383.0, 10384.0, 10383.0, 10359.0, 10339.0, 10333.0, 10377.0, 10368.0, 10399.0, 10387.0, 10358.0, 10350.0, 10381.0, 10366.0, 10370.0, 10382.0, 10369.0, 10357.0, 10370.0, 10344.0, 10352.0, 10361.0, 10356.0, 10361.0, 10367.0, 10402.0, 10372.0, 10374.0, 10388.0, 10396.0, 10386.0, 10346.0, 10354.0, 10378.0, 10384.0, 10375.0, 10383.0, 10374.0, 10379.0, 10343.0, 10324.0, 10340.0, 10395.0, 10395.0, 10375.0, 10347.0, 10337.0, 10339.0, 10357.0, 10348.0, 10455.0, 10385.0, 10337.0, 10345.0, 10321.0, 10384.0, 10352.0, 10348.0, 10368.0, 10391.0, 10316.0, 10328.0, 10357.0, 10377.0, 10366.0, 10371.0, 10358.0, 10369.0, 10322.0, 10319.0, 10349.0, 10324.0, 10318.0, 10340.0, 10364.0, 10375.0, 10416.0, 10351.0, 10328.0, 10316.0, 10315.0, 10294.0, 10307.0, 10331.0, 10348.0, 10353.0, 10355.0, 10362.0, 10375.0, 10360.0, 10383.0, 10414.0, 10426.0, 10430.0, 10407.0, 10358.0, 10323.0, 10310.0, 10316.0, 10323.0, 10368.0, 10323.0, 10324.0, 10317.0, 10308.0, 10302.0, 10324.0, 10320.0, 10327.0, 10305.0, 10304.0, 10320.0, 10305.0, 10287.0, 10281.0, 10294.0, 10303.0, 10351.0, 10372.0, 10383.0, 10381.0, 10357.0, 10341.0, 10327.0, 10327.0, 10334.0, 10330.0, 10340.0, 10322.0, 10315.0],
      "WindowWidth": [22263.0, 22170.0, 22118.0, 22012.0, 21980.0, 22027.0, 22044.0, 22032.0, 22000.0, 21930.0, 21931.0, 21947.0, 21926.0, 21893.0, 21881.0, 21947.0, 21991.0, 21980.0, 21985.0, 21971.0, 21969.0, 21962.0, 21981.0, 21992.0, 22015.0, 22024.0, 22009.0, 22006.0, 22001.0, 21987.0, 21977.0, 21972.0, 21978.0, 21978.0, 22000.0, 22025.0, 22038.0, 22000.0, 21975.0, 21992.0, 22049.0, 22077.0, 22023.0, 21978.0, 21980.0, 21992.0, 22030.0, 22043.0, 22000.0, 22003.0, 22017.0, 22040.0, 22005.0, 21980.0, 21980.0, 21963.0, 21939.0, 21954.0, 21976.0, 22000.0, 21964.0, 21954.0, 22010.0, 22007.0, 22078.0, 22101.0, 22049.0, 22022.0, 21976.0, 21975.0, 22014.0, 22003.0, 22006.0, 22009.0, 22010.0, 21953.0, 21906.0, 21889.0, 21981.0, 21974.0, 22045.0, 22018.0, 21950.0, 21935.0, 21992.0, 21973.0, 21982.0, 22005.0, 21976.0, 21947.0, 21976.0, 21914.0, 21936.0, 21956.0, 21951.0, 21955.0, 21977.0, 22044.0, 21982.0, 21989.0, 22014.0, 22038.0, 22004.0, 21921.0, 21941.0, 21992.0, 22012.0, 21988.0, 22012.0, 21992.0, 21993.0, 21916.0, 21868.0, 21907.0, 22035.0, 22036.0, 21987.0, 21923.0, 21900.0, 21910.0, 21944.0, 21929.0, 22130.0, 21997.0, 21899.0, 21906.0, 21860.0, 21989.0, 21931.0, 21923.0, 21966.0, 22001.0, 21859.0, 21884.0, 21955.0, 21999.0, 21973.0, 21985.0, 21947.0, 21963.0, 21869.0, 21866.0, 21919.0, 21868.0, 21859.0, 21906.0, 21964.0, 21989.0, 22072.0, 21935.0, 21881.0, 21853.0, 21846.0, 21803.0, 21829.0, 21890.0, 21924.0, 21940.0, 21946.0, 21966.0, 21990.0, 21959.0, 21998.0, 22066.0, 22095.0, 22101.0, 22058.0, 21940.0, 21858.0, 21839.0, 21853.0, 21866.0, 21962.0, 21874.0, 21872.0, 21850.0, 21825.0, 21819.0, 21866.0, 21860.0, 21876.0, 21825.0, 21824.0, 21858.0, 21822.0, 21783.0, 21768.0, 21793.0, 21814.0, 21912.0, 21963.0, 21994.0, 21988.0, 21935.0, 21899.0, 21868.0, 21859.0, 21890.0, 21885.0, 21900.0, 21860.0, 21843.0]
    },
    "slices": {}
  }
}