{
  "AcquisitionMatrixPE": 104,
  "AcquisitionNumber": 1,
  "AcquisitionTime": "11:27:48.960000",
  "BandwidthPerPixelPhaseEncode": 17.17,
  "BaseResolution": 104,
  "BodyPartExamined": "BRAIN",
  "CoilString": "HC1-7;NC1_2",
  "ConsistencyInfo": "N4_VE11C_LATEST_20160120",
  "ConversionSoftware": "dcm2niix",
  "ConversionSoftwareVersion": "v1.0.20190902",
  "DerivedVendorReportedEchoSpacing": 0.000560011,
  "DeviceSerialNumber": "167006",
  "DwellTime": 2.1e-06,
  "EchoTime": 0.037,
  "EchoTrainLength": 104,
  "EffectiveEchoSpacing": 0.000560011,
  "FlipAngle": 52,
  "ImageComments": "Unaliased_MB4_PE3_LB",
  "ImageOrientationPatientDICOM": [0.999591, 0.00787951, 0.0274939, 0.00750202, 0.855407, -0.517902],
  "ImageType": [
    "ORIGINAL",
    "PRIMARY",
    "M",
    "MB",
    "ND",
    "MOSAIC"
],
  "ImagingFrequency": 123.259,
  "InPlanePhaseEncodingDirectionDICOM": "COL",
  "InstitutionAddress": "Chemin_Queen-Mary_4565_Montreal_District_CA_H3W_1W5",
  "InstitutionName": "IUGM",
  "InstitutionalDepartmentName": "Department",
  "MRAcquisitionType": "2D",
  "MagneticFieldStrength": 3,
  "Manufacturer": "Siemens",
  "ManufacturersModelName": "Prisma_fit",
  "Modality": "MR",
  "MultibandAccelerationFactor": 4,
  "PartialFourier": 1,
  "PatientPosition": "HFS",
  "PercentPhaseFOV": 100,
  "PhaseEncodingDirection": "j",
  "PhaseEncodingSteps": 104,
  "PhaseResolution": 1,
  "PixelBandwidth": 2290,
  "ProcedureStepDescription": "localizers_retinotopy",
  "ProtocolName": "func_task-wedges",
  "PulseSequenceDetails": "%CustomerSeq%_cmrr_mbep2d_bold",
  "ReceiveCoilActiveElements": "HC1-7;NC1,2",
  "ReceiveCoilName": "HeadNeck_64",
  "ReconMatrixPE": 104,
  "RepetitionTime": 1.49,
  "SAR": 0.0566186,
  "ScanOptions": "FS",
  "ScanningSequence": "EP",
  "SequenceName": "epfid2d1_104",
  "SequenceVariant": "SK_SS",
  "SeriesDescription": "func_task-wedges",
  "SeriesNumber": 10,
  "ShimSetting": [617, -7186, -8866, 299, 1, -155, -5, -35],
  "SliceThickness": 2,
  "SliceTiming": [0, 0.7825, 0.0975, 0.88, 0.195, 0.98, 0.2925, 1.0775, 0.39, 1.175, 0.49, 1.2725, 0.5875, 1.37, 0.685, 0, 0.7825, 0.0975, 0.88, 0.195, 0.98, 0.2925, 1.0775, 0.39, 1.175, 0.49, 1.2725, 0.5875, 1.37, 0.685, 0, 0.7825, 0.0975, 0.88, 0.195, 0.98, 0.2925, 1.0775, 0.39, 1.175, 0.49, 1.2725, 0.5875, 1.37, 0.685, 0, 0.7825, 0.0975, 0.88, 0.195, 0.98, 0.2925, 1.0775, 0.39, 1.175, 0.49, 1.2725, 0.5875, 1.37, 0.685],
  "SoftwareVersions": "syngo_MR_E11",
  "SpacingBetweenSlices": 2,
  "StationName": "MRC35049",
  "TaskName": "wedges",
  "TotalReadoutTime": 0.0576811,
  "TxRefAmp": 288.046,
  "WipMemBlock": "8b2b0a1a-d8cd-434f-8d2d-700711e6161a||Sequence: R016 ve11c/master r/e634e98; Dec 19 2017 11:00:25 by eja",
  "dcmmeta_affine": [
    [-1.999181866645813, 0.015004035085439682, 0.05519859492778778, 104.91273498535156],
    [-0.01575901359319687, 1.7108145952224731, -1.0357919931411743, -50.0696907043457],
    [0.05498781055212021, 1.0358030796051025, 1.7099965810775757, -101.8006820678711],
    [0.0, 0.0, 0.0, 1.0]
],
  "dcmmeta_reorient_transform": [
    [0.0, -1.0, 0.0, 103.0],
    [1.0, 0.0, 0.0, 0.0],
    [0.0, 0.0, 1.0, 0.0],
    [0.0, 0.0, 0.0, 1.0]
],
  "dcmmeta_shape": [104, 104, 60, 202],
  "dcmmeta_slice_dim": 2,
  "dcmmeta_version": 0.6,
  "global": {
    "const": {
      "AcquisitionMatrix": [104, 0, 0, 104],
      "AngioFlag": "N",
      "BitsAllocated": 16,
      "BitsStored": 16,
      "BodyPartExamined": "BRAIN",
      "Columns": 832,
      "EchoNumbers": 1,
      "EchoTime": 37.0,
      "EchoTrainLength": 104,
      "FlipAngle": 52.0,
      "HighBit": 15,
      "ImageOrientationPatient": [0.9995909155871, 0.00787950703416, 0.02749390559082, 0.00750201760017, 0.85540732460104, -0.5179015628001],
      "ImagePositionPatient": [-839.62180967534, -754.61703253132, 361.90381435283],
      "ImageType": [
        "ORIGINAL",
        "PRIMARY",
        "M",
        "MB",
        "ND",
        "MOSAIC"
],
      "ImagedNucleus": "1H",
      "ImagingFrequency": 123.258946,
      "InPlanePhaseEncodingDirection": "COL",
      "MRAcquisitionType": "2D",
      "MagneticFieldStrength": 3.0,
      "Manufacturer": "SIEMENS",
      "ManufacturerModelName": "Prisma_fit",
      "Modality": "MR",
      "NumberOfAverages": 1.0,
      "NumberOfPhaseEncodingSteps": 104,
      "PercentPhaseFieldOfView": 100.0,
      "PercentSampling": 100.0,
      "PerformedProcedureStepStartTime": "112430.686000",
      "PhotometricInterpretation": "MONOCHROME2",
      "PixelBandwidth": 2290.0,
      "PixelRepresentation": 0,
      "PixelSpacing": [2.0, 2.0],
      "ProtocolName": "func_task-wedges",
      "RepetitionTime": 1490.0,
      "Rows": 832,
      "SAR": 0.05661856748657,
      "SamplesPerPixel": 1,
      "ScanOptions": "FS",
      "ScanningSequence": "EP",
      "SequenceName": "epfid2d1_104",
      "SequenceVariant": [
        "SK",
        "SS"
],
      "SeriesDescription": "func_task-wedges",
      "SeriesNumber": 10,
      "SeriesTime": "112905.191000",
      "SliceLocation": -58.213000135389,
      "SliceThickness": 2.0,
      "SmallestImagePixelValue": 0,
      "SoftwareVersions": "syngo MR E11",
      "SpacingBetweenSlices": 2.0000000385964,
      "SpecificCharacterSet": "ISO_IR 100",
      "StudyID": "1",
      "StudyTime": "112430.601000",
      "TransmitCoilName": "Body",
      "VariableFlipAngleFlag": "N",
      "WindowCenterWidthExplanation": "Algo1",
      "dBdt": 0.0},
    "slices": {}
  },
  "time": {
    "samples": {
      "AcquisitionNumber": [1, 2, 3, 4, 5, 6, 7, 8, 9, 10, 11, 12, 13, 14, 15, 16, 17, 18, 19, 20, 21, 22, 23, 24, 25, 26, 27, 28, 29, 30, 31, 32, 33, 34, 35, 36, 37, 38, 39, 40, 41, 42, 43, 44, 45, 46, 47, 48, 49, 50, 51, 52, 53, 54, 55, 56, 57, 58, 59, 60, 61, 62, 63, 64, 65, 66, 67, 68, 69, 70, 71, 72, 73, 74, 75, 76, 77, 78, 79, 80, 81, 82, 83, 84, 85, 86, 87, 88, 89, 90, 91, 92, 93, 94, 95, 96, 97, 98, 99, 100, 101, 102, 103, 104, 105, 106, 107, 108, 109, 110, 111, 112, 113, 114, 115, 116, 117, 118, 119, 120, 121, 122, 123, 124, 125, 126, 127, 128, 129, 130, 131, 132, 133, 134, 135, 136, 137, 138, 139, 140, 141, 142, 143, 144, 145, 146, 147, 148, 149, 150, 151, 152, 153, 154, 155, 156, 157, 158, 159, 160, 161, 162, 163, 164, 165, 166, 167, 168, 169, 170, 171, 172, 173, 174, 175, 176, 177, 178, 179, 180, 181, 182, 183, 184, 185, 186, 187, 188, 189, 190, 191, 192, 193, 194, 195, 196, 197, 198, 199, 200, 201, 202],
      "AcquisitionTime": ["112748.960000", "112750.450000", "112751.940000", "112753.430000", "112754.920000", "112756.410000", "112757.900000", "112759.390000", "112800.880000", "112802.370000", "112803.860000", "112805.350000", "112806.840000", "112808.330000", "112809.820000", "112811.310000", "112812.800000", "112814.290000", "112815.780000", "112817.270000", "112818.760000", "112820.250000", "112821.740000", "112823.230000", "112824.720000", "112826.210000", "112827.700000", "112829.190000", "112830.680000", "112832.170000", "112833.660000", "112835.150000", "112836.640000", "112838.130000", "112839.620000", "112841.110000", "112842.600000", "112844.090000", "112845.580000", "112847.070000", "112848.560000", "112850.050000", "112851.540000", "112853.030000", "112854.520000", "112856.010000", "112857.500000", "112858.990000", "112900.480000", "112901.970000", "112903.460000", "112904.950000", "112906.440000", "112907.930000", "112909.420000", "112910.910000", "112912.400000", "112913.890000", "112915.380000", "112916.870000", "112918.360000", "112919.850000", "112921.340000", "112922.830000", "112924.320000", "112925.810000", "112927.300000", "112928.790000", "112930.280000", "112931.770000", "112933.260000", "112934.750000", "112936.240000", "112937.730000", "112939.220000", "112940.710000", "112942.200000", "112943.690000", "112945.180000", "112946.670000", "112948.160000", "112949.650000", "112951.140000", "112952.630000", "112954.120000", "112955.610000", "112957.100000", "112958.590000", "113000.080000", "113001.570000", "113003.060000", "113004.550000", "113006.040000", "113007.530000", "113009.020000", "113010.510000", "113012.000000", "113013.490000", "113014.980000", "113016.470000", "113017.960000", "113019.450000", "113020.940000", "113022.430000", "113023.920000", "113025.410000", "113026.900000", "113028.390000", "113029.880000", "113031.370000", "113032.860000", "113034.350000", "113035.840000", "113037.330000", "113038.820000", "113040.310000", "113041.800000", "113043.290000", "113044.780000", "113046.270000", "113047.760000", "113049.250000", "113050.740000", "113052.230000", "113053.720000", "113055.210000", "113056.700000", "113058.190000", "113059.680000", "113101.170000", "113102.660000", "113104.150000", "113105.640000", "113107.130000", "113108.620000", "113110.110000", "113111.600000", "113113.090000", "113114.580000", "113116.070000", "113117.560000", "113119.050000", "113120.540000", "113122.030000", "113123.520000", "113125.010000", "113126.500000", "113127.990000", "113129.480000", "113130.970000", "113132.460000", "113133.950000", "113135.440000", "113136.930000", "113138.420000", "113139.910000", "113141.400000", "113142.890000", "113144.380000", "113145.870000", "113147.360000", "113148.850000", "113150.340000", "113151.830000", "113153.320000", "113154.810000", "113156.300000", "113157.790000", "113159.280000", "113200.770000", "113202.260000", "113203.750000", "113205.240000", "113206.730000", "113208.220000", "113209.710000", "113211.200000", "113212.690000", "113214.180000", "113215.670000", "113217.160000", "113218.650000", "113220.140000", "113221.630000", "113223.120000", "113224.610000", "113226.100000", "113227.590000", "113229.080000", "113230.570000", "113232.060000", "113233.550000", "113235.040000", "113236.530000", "113238.020000", "113239.510000", "113241.000000", "113242.490000", "113243.980000", "113245.470000", "113246.960000", "113248.450000"],
      "ContentTime": ["112905.194000", "112905.198000", "112905.201000", "112905.210000", "112905.213000", "112905.217000", "112905.220000", "112905.223000", "112905.227000", "112905.231000", "112905.234000", "112905.237000", "112905.241000", "112905.245000", "112905.249000", "112905.252000", "112905.256000", "112905.259000", "112905.263000", "112905.266000", "112905.269000", "112905.273000", "112925.159000", "112925.163000", "112925.166000", "112925.170000", "112925.173000", "112925.177000", "112925.180000", "112925.183000", "112925.187000", "112925.190000", "112925.194000", "112925.197000", "112925.201000", "112925.204000", "112925.207000", "112925.211000", "112925.214000", "112925.218000", "112925.221000", "112925.225000", "112945.159000", "112945.164000", "112945.169000", "112945.173000", "112945.177000", "112945.182000", "112945.185000", "112945.189000", "112945.192000", "112945.196000", "112945.199000", "112945.203000", "112945.206000", "112945.210000", "112945.213000", "112945.217000", "112945.220000", "112945.223000", "112945.227000", "112945.230000", "113005.159000", "113005.163000", "113005.174000", "113005.177000", "113005.181000", "113005.184000", "113005.187000", "113005.191000", "113005.194000", "113005.198000", "113005.201000", "113005.205000", "113005.208000", "113005.211000", "113005.215000", "113005.218000", "113005.222000", "113005.225000", "113005.229000", "113005.232000", "113005.236000", "113025.158000", "113025.162000", "113025.166000", "113025.169000", "113025.173000", "113025.177000", "113025.180000", "113025.184000", "113025.187000", "113025.191000", "113025.194000", "113025.198000", "113025.201000", "113025.205000", "113025.208000", "113025.211000", "113025.215000", "113025.218000", "113025.222000", "113025.225000", "113105.159000", "113105.163000", "113105.166000", "113105.170000", "113105.173000", "113105.177000", "113105.180000", "113105.184000", "113105.187000", "113105.190000", "113105.194000", "113105.197000", "113105.201000", "113105.204000", "113105.208000", "113105.211000", "113105.215000", "113105.218000", "113105.222000", "113105.225000", "113105.228000", "113105.232000", "113105.235000", "113105.239000", "113105.242000", "113105.246000", "113105.249000", "113105.253000", "113145.159000", "113145.163000", "113145.166000", "113145.170000", "113145.173000", "113145.177000", "113145.180000", "113145.184000", "113145.188000", "113145.191000", "113145.195000", "113145.198000", "113145.202000", "113145.205000", "113145.209000", "113145.212000", "113145.216000", "113145.219000", "113145.223000", "113145.226000", "113145.229000", "113145.233000", "113145.236000", "113145.240000", "113145.243000", "113145.247000", "113145.250000", "113225.159000", "113225.163000", "113225.167000", "113225.182000", "113225.197000", "113225.201000", "113225.205000", "113225.209000", "113225.212000", "113225.215000", "113225.219000", "113225.223000", "113225.226000", "113225.229000", "113225.233000", "113225.236000", "113225.240000", "113225.243000", "113225.246000", "113225.250000", "113225.253000", "113225.257000", "113225.260000", "113225.264000", "113225.267000", "113225.271000", "113250.710000", "113250.714000", "113250.718000", "113250.731000", "113250.735000", "113250.739000", "113250.742000", "113250.746000", "113250.750000", "113250.754000", "113250.757000", "113250.761000", "113250.764000", "113250.767000", "113250.816000", "113250.819000", "113250.823000", "113250.827000"],
      "InstanceCreationTime": ["112905.194000", "112905.198000", "112905.201000", "112905.210000", "112905.213000", "112905.217000", "112905.220000", "112905.223000", "112905.227000", "112905.231000", "112905.234000", "112905.237000", "112905.241000", "112905.245000", "112905.249000", "112905.252000", "112905.256000", "112905.259000", "112905.263000", "112905.266000", "112905.269000", "112905.273000", "112925.159000", "112925.163000", "112925.166000", "112925.170000", "112925.173000", "112925.177000", "112925.180000", "112925.183000", "112925.187000", "112925.190000", "112925.194000", "112925.197000", "112925.201000", "112925.204000", "112925.207000", "112925.211000", "112925.214000", "112925.218000", "112925.221000", "112925.225000", "112945.159000", "112945.164000", "112945.169000", "112945.173000", "112945.177000", "112945.182000", "112945.185000", "112945.189000", "112945.192000", "112945.196000", "112945.199000", "112945.203000", "112945.206000", "112945.210000", "112945.213000", "112945.217000", "112945.220000", "112945.223000", "112945.227000", "112945.230000", "113005.159000", "113005.163000", "113005.174000", "113005.177000", "113005.181000", "113005.184000", "113005.187000", "113005.191000", "113005.194000", "113005.198000", "113005.201000", "113005.205000", "113005.208000", "113005.211000", "113005.215000", "113005.218000", "113005.222000", "113005.225000", "113005.229000", "113005.232000", "113005.236000", "113025.158000", "113025.162000", "113025.166000", "113025.169000", "113025.173000", "113025.177000", "113025.180000", "113025.184000", "113025.187000", "113025.191000", "113025.194000", "113025.198000", "113025.201000", "113025.205000", "113025.208000", "113025.211000", "113025.215000", "113025.218000", "113025.222000", "113025.225000", "113105.159000", "113105.163000", "113105.166000", "113105.170000", "113105.173000", "113105.177000", "113105.180000", "113105.184000", "113105.187000", "113105.190000", "113105.194000", "113105.197000", "113105.201000", "113105.204000", "113105.208000", "113105.211000", "113105.215000", "113105.218000", "113105.222000", "113105.225000", "113105.228000", "113105.232000", "113105.235000", "113105.239000", "113105.242000", "113105.246000", "113105.249000", "113105.253000", "113145.159000", "113145.163000", "113145.166000", "113145.170000", "113145.173000", "113145.177000", "113145.180000", "113145.184000", "113145.188000", "113145.191000", "113145.195000", "113145.198000", "113145.202000", "113145.205000", "113145.209000", "113145.212000", "113145.216000", "113145.219000", "113145.223000", "113145.226000", "113145.229000", "113145.233000", "113145.236000", "113145.240000", "113145.243000", "113145.247000", "113145.250000", "113225.159000", "113225.163000", "113225.167000", "113225.182000", "113225.197000", "113225.201000", "113225.205000", "113225.209000", "113225.212000", "113225.215000", "113225.219000", "113225.223000", "113225.226000", "113225.229000", "113225.233000", "113225.236000", "113225.240000", "113225.243000", "113225.246000", "113225.250000", "113225.253000", "113225.257000", "113225.260000", "113225.264000", "113225.267000", "113225.271000", "113250.710000", "113250.714000", "113250.718000", "113250.731000", "113250.735000", "113250.739000", "113250.742000", "113250.746000", "113250.750000", "113250.754000", "113250.757000", "113250.761000", "113250.764000", "113250.767000", "113250.816000", "113250.819000", "113250.823000", "113250.827000"],
      "InstanceNumber": [1, 2, 3, 4, 5, 6, 7, 8, 9, 10, 11, 12, 13, 14, 15, 16, 17, 18, 19, 20, 21, 22, 23, 24, 25, 26, 27, 28, 29, 30, 31, 32, 33, 34, 35, 36, 37, 38, 39, 40, 41, 42, 43, 44, 45, 46, 47, 48, 49, 50, 51, 52, 53, 54, 55, 56, 57, 58, 59, 60, 61, 62, 63, 64, 65, 66, 67, 68, 69, 70, 71, 72, 73, 74, 75, 76, 77, 78, 79, 80, 81, 82, 83, 84, 85, 86, 87, 88, 89, 90, 91, 92, 93, 94, 95, 96, 97, 98, 99, 100, 101, 102, 103, 104, 105, 106, 107, 108, 109, 110, 111, 112, 113, 114, 115, 116, 117, 118, 119, 120, 121, 122, 123, 124, 125, 126, 127, 128, 129, 130, 131, 132, 133, 134, 135, 136, 137, 138, 139, 140, 141, 142, 143, 144, 145, 146, 147, 148, 149, 150, 151, 152, 153, 154, 155, 156, 157, 158, 159, 160, 161, 162, 163, 164, 165, 166, 167, 168, 169, 170, 171, 172, 173, 174, 175, 176, 177, 178, 179, 180, 181, 182, 183, 184, 185, 186, 187, 188, 189, 190, 191, 192, 193, 194, 195, 196, 197, 198, 199, 200, 201, 202],
      "LargestImagePixelValue": [47324, 45967, 45287, 44863, 45378, 45129, 45042, 45920, 43417, 43121, 43726, 44137, 44442, 43980, 43503, 43575, 43412, 43811, 44575, 44680, 43305, 43245, 43742, 43965, 44908, 44123, 43241, 44296, 44827, 44206, 44750, 44197, 42579, 43644, 43902, 44746, 45232, 44537, 44428, 44553, 45042, 44741, 44379, 43507, 42577, 43525, 43661, 45089, 45601, 44599, 45321, 45015, 44068, 44333, 44300, 43698, 44979, 44643, 43676, 44203, 45442, 45019, 45172, 44683, 44531, 44734, 44527, 44683, 44110, 43995, 44484, 44784, 45363, 44722, 44978, 45490, 45294, 44319, 46263, 45995, 43480, 41573, 42638, 44994, 45367, 44636, 45415, 45055, 45079, 44123, 42104, 42506, 44773, 44699, 45212, 45112, 45428, 45097, 45208, 44942, 43719, 42139, 42138, 44522, 45207, 44366, 45436, 45336, 45567, 44905, 45096, 44261, 43856, 45243, 44673, 43168, 44134, 45459, 44662, 45511, 45293, 44969, 44949, 44747, 42534, 41955, 42584, 45017, 45864, 45565, 45841, 46424, 46012, 46524, 46849, 43329, 42607, 43085, 42134, 45752, 45301, 45668, 45609, 45493, 46156, 44544, 41634, 42310, 42140, 44285, 45274, 44990, 45169, 45641, 45329, 44950, 45289, 44303, 41371, 41928, 42759, 45354, 44703, 44972, 45325, 44662, 45029, 45526, 45319, 43503, 44168, 45732, 45554, 45878, 45222, 45325, 45911, 46747, 46361, 45742, 43877, 42274, 44063, 44872, 44860, 44917, 44885, 45199, 45481, 46677, 46416, 45372, 44424, 42660, 43550, 45230, 44637, 44967, 44797, 44749, 46083, 46772],
      "WindowCenter": [11182.0, 11114.0, 11068.0, 11014.0, 10986.0, 11001.0, 11057.0, 11077.0, 11075.0, 11031.0, 10996.0, 10968.0, 10999.0, 11022.0, 11020.0, 11012.0, 11011.0, 11018.0, 11033.0, 11035.0, 10983.0, 10961.0, 10933.0, 10920.0, 10971.0, 11016.0, 11023.0, 11046.0, 11048.0, 11033.0, 11054.0, 11035.0, 10983.0, 10977.0, 10965.0, 10973.0, 11016.0, 11042.0, 11050.0, 11048.0, 11047.0, 11054.0, 11049.0, 11000.0, 10975.0, 10937.0, 10929.0, 10979.0, 11028.0, 11028.0, 11033.0, 11021.0, 11009.0, 11025.0, 11029.0, 11014.0, 11012.0, 11001.0, 10979.0, 10991.0, 11031.0, 11043.0, 11052.0, 11056.0, 11016.0, 11002.0, 11017.0, 11015.0, 10989.0, 10964.0, 10980.0, 10990.0, 11009.0, 11007.0, 11007.0, 11003.0, 11004.0, 10968.0, 10999.0, 11037.0, 11027.0, 10984.0, 10959.0, 10978.0, 11002.0, 11007.0, 11031.0, 11025.0, 11024.0, 11009.0, 10950.0, 10923.0, 10929.0, 10969.0, 11002.0, 11016.0, 11013.0, 11011.0, 11025.0, 11022.0, 10974.0, 10916.0, 10893.0, 10948.0, 10998.0, 11024.0, 11041.0, 11028.0, 11010.0, 10975.0, 10946.0, 10955.0, 10987.0, 11040.0, 11040.0, 10994.0, 10963.0, 10965.0, 10966.0, 11001.0, 11014.0, 11015.0, 11021.0, 11023.0, 10977.0, 10920.0, 10882.0, 10892.0, 10960.0, 10995.0, 11016.0, 11003.0, 10993.0, 10991.0, 11014.0, 10992.0, 10956.0, 10921.0, 10874.0, 10906.0, 10944.0, 10984.0, 10991.0, 11000.0, 11017.0, 10982.0, 10945.0, 10928.0, 10905.0, 10929.0, 10955.0, 10980.0, 10993.0, 11000.0, 10990.0, 10996.0, 11018.0, 11006.0, 10962.0, 10940.0, 10926.0, 10963.0, 10980.0, 10987.0, 10978.0, 10973.0, 10995.0, 11018.0, 11011.0, 10971.0, 10943.0, 10949.0, 10975.0, 11015.0, 10998.0, 10978.0, 10985.0, 11008.0, 11027.0, 11015.0, 10967.0, 10904.0, 10901.0, 10911.0, 10982.0, 11030.0, 11023.0, 10986.0, 10950.0, 10980.0, 11008.0, 10979.0, 10970.0, 10930.0, 10908.0, 10945.0, 10980.0, 10995.0, 10972.0, 10945.0, 10959.0, 10989.0],
      "WindowWidth": [24100.0, 23908.0, 23784.0, 23651.0, 23576.0, 23607.0, 23744.0, 23786.0, 23791.0, 23686.0, 23605.0, 23535.0, 23603.0, 23664.0, 23662.0, 23641.0, 23634.0, 23650.0, 23690.0, 23695.0, 23581.0, 23529.0, 23463.0, 23429.0, 23537.0, 23652.0, 23674.0, 23717.0, 23715.0, 23688.0, 23741.0, 23700.0, 23584.0, 23566.0, 23538.0, 23558.0, 23640.0, 23704.0, 23722.0, 23714.0, 23707.0, 23735.0, 23725.0, 23615.0, 23573.0, 23478.0, 23451.0, 23556.0, 23668.0, 23676.0, 23680.0, 23652.0, 23628.0, 23667.0, 23680.0, 23648.0, 23640.0, 23617.0, 23565.0, 23587.0, 23675.0, 23704.0, 23725.0, 23737.0, 23642.0, 23612.0, 23650.0, 23644.0, 23588.0, 23533.0, 23577.0, 23585.0, 23625.0, 23620.0, 23618.0, 23608.0, 23610.0, 23535.0, 23598.0, 23693.0, 23682.0, 23593.0, 23531.0, 23556.0, 23607.0, 23624.0, 23682.0, 23665.0, 23662.0, 23637.0, 23507.0, 23444.0, 23446.0, 23533.0, 23612.0, 23640.0, 23630.0, 23626.0, 23660.0, 23661.0, 23558.0, 23427.0, 23374.0, 23489.0, 23598.0, 23663.0, 23700.0, 23670.0, 23622.0, 23546.0, 23481.0, 23506.0, 23584.0, 23701.0, 23703.0, 23605.0, 23527.0, 23521.0, 23524.0, 23604.0, 23636.0, 23636.0, 23660.0, 23661.0, 23567.0, 23437.0, 23347.0, 23357.0, 23513.0, 23596.0, 23653.0, 23607.0, 23580.0, 23576.0, 23633.0, 23598.0, 23523.0, 23439.0, 23332.0, 23386.0, 23471.0, 23565.0, 23580.0, 23599.0, 23638.0, 23562.0, 23495.0, 23454.0, 23402.0, 23449.0, 23501.0, 23561.0, 23586.0, 23598.0, 23577.0, 23592.0, 23649.0, 23623.0, 23538.0, 23483.0, 23447.0, 23515.0, 23558.0, 23572.0, 23545.0, 23543.0, 23590.0, 23643.0, 23628.0, 23545.0, 23476.0, 23485.0, 23547.0, 23639.0, 23609.0, 23554.0, 23560.0, 23615.0, 23665.0, 23638.0, 23535.0, 23395.0, 23377.0, 23397.0, 23562.0, 23677.0, 23660.0, 23566.0, 23481.0, 23551.0, 23621.0, 23558.0, 23542.0, 23460.0, 23400.0, 23475.0, 23563.0, 23603.0, 23546.0, 23477.0, 23513.0, 23577.0]
    },
    "slices": {}
  }
}