{
  "AcquisitionMatrixPE": 104,
  "AcquisitionNumber": 1,
  "AcquisitionTime": "11:34:15.252500",
  "BandwidthPerPixelPhaseEncode": 17.17,
  "BaseResolution": 104,
  "BodyPartExamined": "BRAIN",
  "CoilString": "HC1-7;NC1_2",
  "ConsistencyInfo": "N4_VE11C_LATEST_20160120",
  "ConversionSoftware": "dcm2niix",
  "ConversionSoftwareVersion": "v1.0.20190902",
  "DerivedVendorReportedEchoSpacing": 0.000560011,
  "DeviceSerialNumber": "167006",
  "DwellTime": 2.1e-06,
  "EchoTime": 0.037,
  "EchoTrainLength": 104,
  "EffectiveEchoSpacing": 0.000560011,
  "FlipAngle": 52,
  "ImageComments": "Unaliased_MB4_PE3_LB",
  "ImageOrientationPatientDICOM": [0.999591, 0.00787951, 0.0274939, 0.00750202, 0.855407, -0.517902],
  "ImageType": [
    "ORIGINAL",
    "PRIMARY",
    "M",
    "MB",
    "ND",
    "MOSAIC"
],
  "ImagingFrequency": 123.259,
  "InPlanePhaseEncodingDirectionDICOM": "COL",
  "InstitutionAddress": "Chemin_Queen-Mary_4565_Montreal_District_CA_H3W_1W5",
  "InstitutionName": "IUGM",
  "InstitutionalDepartmentName": "Department",
  "MRAcquisitionType": "2D",
  "MagneticFieldStrength": 3,
  "Manufacturer": "Siemens",
  "ManufacturersModelName": "Prisma_fit",
  "Modality": "MR",
  "MultibandAccelerationFactor": 4,
  "PartialFourier": 1,
  "PatientPosition": "HFS",
  "PercentPhaseFOV": 100,
  "PhaseEncodingDirection": "j",
  "PhaseEncodingSteps": 104,
  "PhaseResolution": 1,
  "PixelBandwidth": 2290,
  "ProcedureStepDescription": "localizers_retinotopy",
  "ProtocolName": "func_task-rings",
  "PulseSequenceDetails": "%CustomerSeq%_cmrr_mbep2d_bold",
  "ReceiveCoilActiveElements": "HC1-7;NC1,2",
  "ReceiveCoilName": "HeadNeck_64",
  "ReconMatrixPE": 104,
  "RepetitionTime": 1.49,
  "SAR": 0.0566186,
  "ScanOptions": "FS",
  "ScanningSequence": "EP",
  "SequenceName": "epfid2d1_104",
  "SequenceVariant": "SK_SS",
  "SeriesDescription": "func_task-rings",
  "SeriesNumber": 13,
  "ShimSetting": [617, -7186, -8866, 299, 1, -155, -5, -35],
  "SliceThickness": 2,
  "SliceTiming": [0, 0.785, 0.0975, 0.8825, 0.195, 0.98, 0.295, 1.0775, 0.3925, 1.175, 0.49, 1.275, 0.5875, 1.3725, 0.685, 0, 0.785, 0.0975, 0.8825, 0.195, 0.98, 0.295, 1.0775, 0.3925, 1.175, 0.49, 1.275, 0.5875, 1.3725, 0.685, 0, 0.785, 0.0975, 0.8825, 0.195, 0.98, 0.295, 1.0775, 0.3925, 1.175, 0.49, 1.275, 0.5875, 1.3725, 0.685, 0, 0.785, 0.0975, 0.8825, 0.195, 0.98, 0.295, 1.0775, 0.3925, 1.175, 0.49, 1.275, 0.5875, 1.3725, 0.685],
  "SoftwareVersions": "syngo_MR_E11",
  "SpacingBetweenSlices": 2,
  "StationName": "MRC35049",
  "TaskName": "rings",
  "TotalReadoutTime": 0.0576811,
  "TxRefAmp": 288.046,
  "WipMemBlock": "c0ab24e7-6340-4b5d-bf42-9c61ee61758a||Sequence: R016 ve11c/master r/e634e98; Dec 19 2017 11:00:25 by eja",
  "dcmmeta_affine": [
    [-1.999181866645813, 0.015004035085439682, 0.05519859492778778, 104.91273498535156],
    [-0.01575901359319687, 1.7108145952224731, -1.0357919931411743, -50.0696907043457],
    [0.05498781055212021, 1.0358030796051025, 1.7099965810775757, -101.8006820678711],
    [0.0, 0.0, 0.0, 1.0]
],
  "dcmmeta_reorient_transform": [
    [0.0, -1.0, 0.0, 103.0],
    [1.0, 0.0, 0.0, 0.0],
    [0.0, 0.0, 1.0, 0.0],
    [0.0, 0.0, 0.0, 1.0]
],
  "dcmmeta_shape": [104, 104, 60, 202],
  "dcmmeta_slice_dim": 2,
  "dcmmeta_version": 0.6,
  "global": {
    "const": {
      "AcquisitionMatrix": [104, 0, 0, 104],
      "AngioFlag": "N",
      "BitsAllocated": 16,
      "BitsStored": 16,
      "BodyPartExamined": "BRAIN",
      "Columns": 832,
      "EchoNumbers": 1,
      "EchoTime": 37.0,
      "EchoTrainLength": 104,
      "FlipAngle": 52.0,
      "HighBit": 15,
      "ImageOrientationPatient": [0.9995909155871, 0.00787950703416, 0.02749390559082, 0.00750201760017, 0.85540732460104, -0.5179015628001],
      "ImagePositionPatient": [-839.62180967534, -754.61703253132, 361.90381435283],
      "ImageType": [
        "ORIGINAL",
        "PRIMARY",
        "M",
        "MB",
        "ND",
        "MOSAIC"
],
      "ImagedNucleus": "1H",
      "ImagingFrequency": 123.258954,
      "InPlanePhaseEncodingDirection": "COL",
      "MRAcquisitionType": "2D",
      "MagneticFieldStrength": 3.0,
      "Manufacturer": "SIEMENS",
      "ManufacturerModelName": "Prisma_fit",
      "Modality": "MR",
      "NumberOfAverages": 1.0,
      "NumberOfPhaseEncodingSteps": 104,
      "PercentPhaseFieldOfView": 100.0,
      "PercentSampling": 100.0,
      "PerformedProcedureStepStartTime": "112430.686000",
      "PhotometricInterpretation": "MONOCHROME2",
      "PixelBandwidth": 2290.0,
      "PixelRepresentation": 0,
      "PixelSpacing": [2.0, 2.0],
      "ProtocolName": "func_task-rings",
      "RepetitionTime": 1490.0,
      "Rows": 832,
      "SAR": 0.05661856748657,
      "SamplesPerPixel": 1,
      "ScanOptions": "FS",
      "ScanningSequence": "EP",
      "SequenceName": "epfid2d1_104",
      "SequenceVariant": [
        "SK",
        "SS"
],
      "SeriesDescription": "func_task-rings",
      "SeriesNumber": 13,
      "SeriesTime": "113532.626000",
      "SliceLocation": -58.213000135389,
      "SliceThickness": 2.0,
      "SmallestImagePixelValue": 0,
      "SoftwareVersions": "syngo MR E11",
      "SpacingBetweenSlices": 2.0000000385964,
      "SpecificCharacterSet": "ISO_IR 100",
      "StudyID": "1",
      "StudyTime": "112430.601000",
      "TransmitCoilName": "Body",
      "VariableFlipAngleFlag": "N",
      "WindowCenterWidthExplanation": "Algo1",
      "dBdt": 0.0},
    "slices": {}
  },
  "time": {
    "samples": {
      "AcquisitionNumber": [1, 2, 3, 4, 5, 6, 7, 8, 9, 10, 11, 12, 13, 14, 15, 16, 17, 18, 19, 20, 21, 22, 23, 24, 25, 26, 27, 28, 29, 30, 31, 32, 33, 34, 35, 36, 37, 38, 39, 40, 41, 42, 43, 44, 45, 46, 47, 48, 49, 50, 51, 52, 53, 54, 55, 56, 57, 58, 59, 60, 61, 62, 63, 64, 65, 66, 67, 68, 69, 70, 71, 72, 73, 74, 75, 76, 77, 78, 79, 80, 81, 82, 83, 84, 85, 86, 87, 88, 89, 90, 91, 92, 93, 94, 95, 96, 97, 98, 99, 100, 101, 102, 103, 104, 105, 106, 107, 108, 109, 110, 111, 112, 113, 114, 115, 116, 117, 118, 119, 120, 121, 122, 123, 124, 125, 126, 127, 128, 129, 130, 131, 132, 133, 134, 135, 136, 137, 138, 139, 140, 141, 142, 143, 144, 145, 146, 147, 148, 149, 150, 151, 152, 153, 154, 155, 156, 157, 158, 159, 160, 161, 162, 163, 164, 165, 166, 167, 168, 169, 170, 171, 172, 173, 174, 175, 176, 177, 178, 179, 180, 181, 182, 183, 184, 185, 186, 187, 188, 189, 190, 191, 192, 193, 194, 195, 196, 197, 198, 199, 200, 201, 202],
      "AcquisitionTime": ["113415.252500", "113416.742500", "113418.232500", "113419.722500", "113421.212500", "113422.702500", "113424.192500", "113425.682500", "113427.172500", "113428.662500", "113430.152500", "113431.642500", "113433.132500", "113434.622500", "113436.112500", "113437.602500", "113439.092500", "113440.582500", "113442.072500", "113443.562500", "113445.052500", "113446.542500", "113448.032500", "113449.522500", "113451.012500", "113452.502500", "113453.992500", "113455.482500", "113456.972500", "113458.462500", "113459.952500", "113501.442500", "113502.932500", "113504.422500", "113505.912500", "113507.402500", "113508.892500", "113510.382500", "113511.872500", "113513.362500", "113514.852500", "113516.342500", "113517.832500", "113519.322500", "113520.812500", "113522.302500", "113523.792500", "113525.282500", "113526.772500", "113528.262500", "113529.752500", "113531.242500", "113532.732500", "113534.222500", "113535.712500", "113537.202500", "113538.692500", "113540.182500", "113541.672500", "113543.162500", "113544.652500", "113546.142500", "113547.632500", "113549.122500", "113550.612500", "113552.102500", "113553.592500", "113555.082500", "113556.572500", "113558.062500", "113559.552500", "113601.042500", "113602.532500", "113604.022500", "113605.512500", "113607.002500", "113608.492500", "113609.982500", "113611.472500", "113612.962500", "113614.452500", "113615.942500", "113617.432500", "113618.922500", "113620.412500", "113621.902500", "113623.392500", "113624.882500", "113626.372500", "113627.862500", "113629.352500", "113630.842500", "113632.332500", "113633.822500", "113635.312500", "113636.802500", "113638.292500", "113639.782500", "113641.272500", "113642.762500", "113644.252500", "113645.742500", "113647.232500", "113648.722500", "113650.212500", "113651.702500", "113653.192500", "113654.682500", "113656.172500", "113657.662500", "113659.152500", "113700.642500", "113702.132500", "113703.622500", "113705.112500", "113706.602500", "113708.092500", "113709.582500", "113711.072500", "113712.562500", "113714.052500", "113715.542500", "113717.032500", "113718.522500", "113720.012500", "113721.502500", "113722.992500", "113724.482500", "113725.972500", "113727.462500", "113728.952500", "113730.442500", "113731.932500", "113733.422500", "113734.912500", "113736.402500", "113737.892500", "113739.382500", "113740.872500", "113742.362500", "113743.852500", "113745.342500", "113746.832500", "113748.322500", "113749.812500", "113751.302500", "113752.792500", "113754.282500", "113755.772500", "113757.262500", "113758.752500", "113800.242500", "113801.732500", "113803.222500", "113804.712500", "113806.202500", "113807.692500", "113809.182500", "113810.672500", "113812.162500", "113813.652500", "113815.142500", "113816.632500", "113818.122500", "113819.612500", "113821.102500", "113822.592500", "113824.082500", "113825.572500", "113827.062500", "113828.552500", "113830.042500", "113831.532500", "113833.022500", "113834.512500", "113836.002500", "113837.492500", "113838.982500", "113840.472500", "113841.962500", "113843.452500", "113844.942500", "113846.432500", "113847.922500", "113849.412500", "113850.902500", "113852.392500", "113853.882500", "113855.372500", "113856.862500", "113858.352500", "113859.842500", "113901.332500", "113902.822500", "113904.312500", "113905.802500", "113907.292500", "113908.782500", "113910.272500", "113911.762500", "113913.252500", "113914.742500"],
      "ContentTime": ["113532.629000", "113532.633000", "113532.645000", "113532.648000", "113532.652000", "113532.655000", "113532.658000", "113532.662000", "113532.665000", "113532.669000", "113532.672000", "113532.676000", "113532.679000", "113532.683000", "113532.686000", "113532.690000", "113532.693000", "113532.696000", "113532.700000", "113532.703000", "113532.707000", "113532.710000", "113532.714000", "113552.593000", "113552.597000", "113552.600000", "113552.604000", "113552.607000", "113552.611000", "113552.614000", "113552.618000", "113552.621000", "113552.624000", "113552.628000", "113552.633000", "113552.637000", "113552.641000", "113552.645000", "113552.649000", "113552.653000", "113552.658000", "113552.662000", "113552.666000", "113612.592000", "113612.615000", "113612.619000", "113612.622000", "113612.626000", "113612.629000", "113612.632000", "113612.636000", "113612.639000", "113612.643000", "113612.646000", "113612.650000", "113612.653000", "113612.656000", "113612.661000", "113612.664000", "113612.668000", "113612.671000", "113612.681000", "113612.684000", "113612.688000", "113632.592000", "113632.596000", "113632.600000", "113632.603000", "113632.607000", "113632.610000", "113632.614000", "113632.617000", "113632.620000", "113632.624000", "113632.627000", "113632.631000", "113632.634000", "113632.638000", "113632.641000", "113632.644000", "113632.648000", "113632.661000", "113632.664000", "113632.668000", "113652.592000", "113652.596000", "113652.600000", "113652.603000", "113652.606000", "113652.610000", "113652.613000", "113652.617000", "113652.620000", "113652.624000", "113652.627000", "113652.631000", "113652.634000", "113652.638000", "113652.641000", "113652.644000", "113652.648000", "113652.651000", "113652.655000", "113652.658000", "113732.593000", "113732.610000", "113732.613000", "113732.617000", "113732.620000", "113732.624000", "113732.627000", "113732.630000", "113732.634000", "113732.637000", "113732.641000", "113732.644000", "113732.647000", "113732.651000", "113732.654000", "113732.658000", "113732.661000", "113732.665000", "113732.668000", "113732.677000", "113732.680000", "113732.684000", "113732.687000", "113732.691000", "113732.694000", "113732.698000", "113732.701000", "113732.705000", "113812.593000", "113812.597000", "113812.601000", "113812.604000", "113812.608000", "113812.611000", "113812.615000", "113812.618000", "113812.621000", "113812.625000", "113812.628000", "113812.646000", "113812.650000", "113812.653000", "113812.657000", "113812.660000", "113812.663000", "113812.667000", "113812.670000", "113812.674000", "113812.677000", "113812.681000", "113812.684000", "113812.688000", "113812.691000", "113812.695000", "113852.593000", "113852.597000", "113852.600000", "113852.604000", "113852.608000", "113852.611000", "113852.615000", "113852.618000", "113852.621000", "113852.626000", "113852.630000", "113852.633000", "113852.637000", "113852.640000", "113852.644000", "113852.647000", "113852.651000", "113852.654000", "113852.658000", "113852.661000", "113852.665000", "113852.668000", "113852.672000", "113852.675000", "113852.679000", "113852.682000", "113852.687000", "113916.919000", "113916.923000", "113916.926000", "113916.930000", "113916.934000", "113916.938000", "113916.941000", "113916.951000", "113916.955000", "113916.959000", "113916.963000", "113916.966000", "113916.970000", "113916.973000", "113916.977000", "113916.981000", "113916.984000"],
      "InstanceCreationTime": ["113532.629000", "113532.633000", "113532.645000", "113532.648000", "113532.652000", "113532.655000", "113532.658000", "113532.662000", "113532.665000", "113532.669000", "113532.672000", "113532.676000", "113532.679000", "113532.683000", "113532.686000", "113532.690000", "113532.693000", "113532.696000", "113532.700000", "113532.703000", "113532.707000", "113532.710000", "113532.714000", "113552.593000", "113552.597000", "113552.600000", "113552.604000", "113552.607000", "113552.611000", "113552.614000", "113552.618000", "113552.621000", "113552.624000", "113552.628000", "113552.633000", "113552.637000", "113552.641000", "113552.645000", "113552.649000", "113552.653000", "113552.658000", "113552.662000", "113552.666000", "113612.592000", "113612.615000", "113612.619000", "113612.622000", "113612.626000", "113612.629000", "113612.632000", "113612.636000", "113612.639000", "113612.643000", "113612.646000", "113612.650000", "113612.653000", "113612.656000", "113612.661000", "113612.664000", "113612.668000", "113612.671000", "113612.681000", "113612.684000", "113612.688000", "113632.592000", "113632.596000", "113632.600000", "113632.603000", "113632.607000", "113632.610000", "113632.614000", "113632.617000", "113632.620000", "113632.624000", "113632.627000", "113632.631000", "113632.634000", "113632.638000", "113632.641000", "113632.644000", "113632.648000", "113632.661000", "113632.664000", "113632.668000", "113652.592000", "113652.596000", "113652.600000", "113652.603000", "113652.606000", "113652.610000", "113652.613000", "113652.617000", "113652.620000", "113652.624000", "113652.627000", "113652.631000", "113652.634000", "113652.638000", "113652.641000", "113652.644000", "113652.648000", "113652.651000", "113652.655000", "113652.658000", "113732.593000", "113732.610000", "113732.613000", "113732.617000", "113732.620000", "113732.624000", "113732.627000", "113732.630000", "113732.634000", "113732.637000", "113732.641000", "113732.644000", "113732.647000", "113732.651000", "113732.654000", "113732.658000", "113732.661000", "113732.665000", "113732.668000", "113732.677000", "113732.680000", "113732.684000", "113732.687000", "113732.691000", "113732.694000", "113732.698000", "113732.701000", "113732.705000", "113812.593000", "113812.597000", "113812.601000", "113812.604000", "113812.608000", "113812.611000", "113812.615000", "113812.618000", "113812.621000", "113812.625000", "113812.628000", "113812.646000", "113812.650000", "113812.653000", "113812.657000", "113812.660000", "113812.663000", "113812.667000", "113812.670000", "113812.674000", "113812.677000", "113812.681000", "113812.684000", "113812.688000", "113812.691000", "113812.695000", "113852.593000", "113852.597000", "113852.600000", "113852.604000", "113852.608000", "113852.611000", "113852.615000", "113852.618000", "113852.621000", "113852.626000", "113852.630000", "113852.633000", "113852.637000", "113852.640000", "113852.644000", "113852.647000", "113852.651000", "113852.654000", "113852.658000", "113852.661000", "113852.665000", "113852.668000", "113852.672000", "113852.675000", "113852.679000", "113852.682000", "113852.687000", "113916.919000", "113916.923000", "113916.926000", "113916.930000", "113916.934000", "113916.938000", "113916.941000", "113916.951000", "113916.955000", "113916.959000", "113916.963000", "113916.966000", "113916.970000", "113916.973000", "113916.977000", "113916.981000", "113916.984000"],
      "InstanceNumber": [1, 2, 3, 4, 5, 6, 7, 8, 9, 10, 11, 12, 13, 14, 15, 16, 17, 18, 19, 20, 21, 22, 23, 24, 25, 26, 27, 28, 29, 30, 31, 32, 33, 34, 35, 36, 37, 38, 39, 40, 41, 42, 43, 44, 45, 46, 47, 48, 49, 50, 51, 52, 53, 54, 55, 56, 57, 58, 59, 60, 61, 62, 63, 64, 65, 66, 67, 68, 69, 70, 71, 72, 73, 74, 75, 76, 77, 78, 79, 80, 81, 82, 83, 84, 85, 86, 87, 88, 89, 90, 91, 92, 93, 94, 95, 96, 97, 98, 99, 100, 101, 102, 103, 104, 105, 106, 107, 108, 109, 110, 111, 112, 113, 114, 115, 116, 117, 118, 119, 120, 121, 122, 123, 124, 125, 126, 127, 128, 129, 130, 131, 132, 133, 134, 135, 136, 137, 138, 139, 140, 141, 142, 143, 144, 145, 146, 147, 148, 149, 150, 151, 152, 153, 154, 155, 156, 157, 158, 159, 160, 161, 162, 163, 164, 165, 166, 167, 168, 169, 170, 171, 172, 173, 174, 175, 176, 177, 178, 179, 180, 181, 182, 183, 184, 185, 186, 187, 188, 189, 190, 191, 192, 193, 194, 195, 196, 197, 198, 199, 200, 201, 202],
      "LargestImagePixelValue": [44457, 43185, 42709, 42400, 44030, 43067, 42082, 42176, 41409, 44443, 44479, 42190, 43656, 43236, 42858, 41774, 42815, 42825, 42157, 42762, 42959, 44119, 41327, 43077, 43681, 42218, 42073, 43627, 42806, 43313, 42744, 42597, 42388, 42269, 44861, 44589, 42179, 43561, 43131, 41511, 42458, 43666, 44655, 44633, 43363, 43764, 41926, 42560, 42371, 41795, 43861, 43715, 42500, 42116, 42004, 41985, 43448, 41540, 42701, 42946, 41932, 42306, 45233, 44982, 41842, 42546, 42960, 41512, 42746, 42560, 42776, 43018, 44630, 45190, 42770, 43389, 43546, 43853, 41693, 42218, 42721, 44021, 44404, 44542, 44998, 42502, 44494, 45532, 44282, 43116, 41832, 43702, 44282, 43902, 43975, 46259, 43040, 42307, 43335, 42366, 41940, 41303, 41626, 42298, 42464, 41951, 41314, 44498, 44202, 42166, 43487, 41498, 41833, 41783, 41787, 41788, 44246, 44491, 42061, 42007, 41964, 41387, 41821, 45341, 41471, 42693, 45490, 45572, 41268, 43347, 41980, 42054, 41381, 41122, 43118, 43995, 42057, 41136, 41350, 41841, 42397, 42294, 41992, 43518, 45338, 44987, 41705, 42683, 42950, 41799, 41564, 41508, 41604, 41616, 42132, 43058, 44768, 43152, 42096, 42025, 41438, 42118, 41404, 41588, 42755, 42563, 45626, 42833, 42221, 41794, 43220, 43333, 42552, 42399, 42409, 42836, 41804, 41815, 43546, 44777, 43128, 41639, 42330, 42399, 42104, 41556, 41499, 41548, 42003, 44506, 44376, 41657, 42114, 43187, 43115, 42002, 41618, 41277, 41688, 41545, 42469, 44987],
      "WindowCenter": [10966.0, 10970.0, 10982.0, 10969.0, 10937.0, 10878.0, 10868.0, 10884.0, 10885.0, 10932.0, 10958.0, 10907.0, 10893.0, 10873.0, 10831.0, 10822.0, 10888.0, 10934.0, 10943.0, 10940.0, 10924.0, 10948.0, 10922.0, 10926.0, 10921.0, 10886.0, 10885.0, 10918.0, 10897.0, 10915.0, 10928.0, 10934.0, 10934.0, 10935.0, 10963.0, 10973.0, 10917.0, 10880.0, 10827.0, 10806.0, 10869.0, 10941.0, 10978.0, 10978.0, 10934.0, 10939.0, 10895.0, 10887.0, 10882.0, 10876.0, 10896.0, 10901.0, 10886.0, 10876.0, 10862.0, 10879.0, 10940.0, 10952.0, 10957.0, 10923.0, 10882.0, 10878.0, 10944.0, 10986.0, 10926.0, 10881.0, 10850.0, 10833.0, 10895.0, 10930.0, 10935.0, 10911.0, 10910.0, 10925.0, 10916.0, 10894.0, 10862.0, 10840.0, 10826.0, 10876.0, 10898.0, 10893.0, 10873.0, 10883.0, 10917.0, 10900.0, 10904.0, 10883.0, 10831.0, 10812.0, 10843.0, 10887.0, 10883.0, 10870.0, 10871.0, 10916.0, 10922.0, 10905.0, 10890.0, 10854.0, 10841.0, 10863.0, 10895.0, 10905.0, 10890.0, 10866.0, 10847.0, 10891.0, 10903.0, 10882.0, 10900.0, 10884.0, 10866.0, 10902.0, 10941.0, 10944.0, 10951.0, 10963.0, 10901.0, 10880.0, 10851.0, 10862.0, 10910.0, 10949.0, 10891.0, 10898.0, 10935.0, 10969.0, 10926.0, 10935.0, 10907.0, 10899.0, 10893.0, 10885.0, 10883.0, 10888.0, 10886.0, 10901.0, 10886.0, 10882.0, 10889.0, 10887.0, 10880.0, 10894.0, 10935.0, 10976.0, 10929.0, 10901.0, 10854.0, 10821.0, 10853.0, 10891.0, 10897.0, 10878.0, 10872.0, 10881.0, 10908.0, 10907.0, 10863.0, 10851.0, 10828.0, 10852.0, 10880.0, 10911.0, 10924.0, 10907.0, 10955.0, 10939.0, 10900.0, 10872.0, 10871.0, 10883.0, 10899.0, 10930.0, 10933.0, 10897.0, 10874.0, 10865.0, 10882.0, 10902.0, 10892.0, 10878.0, 10896.0, 10889.0, 10893.0, 10906.0, 10920.0, 10915.0, 10896.0, 10919.0, 10927.0, 10896.0, 10901.0, 10877.0, 10833.0, 10828.0, 10897.0, 10938.0, 10928.0, 10875.0, 10860.0, 10895.0],
      "WindowWidth": [23617.0, 23590.0, 23604.0, 23565.0, 23476.0, 23331.0, 23315.0, 23355.0, 23359.0, 23453.0, 23511.0, 23407.0, 23365.0, 23326.0, 23227.0, 23206.0, 23352.0, 23461.0, 23488.0, 23475.0, 23437.0, 23489.0, 23448.0, 23449.0, 23435.0, 23361.0, 23355.0, 23424.0, 23379.0, 23417.0, 23449.0, 23468.0, 23464.0, 23469.0, 23525.0, 23553.0, 23432.0, 23344.0, 23223.0, 23179.0, 23312.0, 23473.0, 23559.0, 23559.0, 23454.0, 23474.0, 23377.0, 23358.0, 23346.0, 23336.0, 23369.0, 23378.0, 23350.0, 23330.0, 23298.0, 23338.0, 23473.0, 23510.0, 23519.0, 23437.0, 23346.0, 23334.0, 23475.0, 23575.0, 23451.0, 23345.0, 23269.0, 23238.0, 23371.0, 23452.0, 23464.0, 23406.0, 23408.0, 23429.0, 23425.0, 23376.0, 23296.0, 23244.0, 23223.0, 23332.0, 23379.0, 23361.0, 23307.0, 23330.0, 23413.0, 23392.0, 23396.0, 23343.0, 23229.0, 23185.0, 23260.0, 23351.0, 23340.0, 23308.0, 23309.0, 23405.0, 23440.0, 23403.0, 23363.0, 23284.0, 23253.0, 23304.0, 23380.0, 23403.0, 23361.0, 23309.0, 23272.0, 23357.0, 23393.0, 23352.0, 23385.0, 23362.0, 23311.0, 23391.0, 23480.0, 23491.0, 23500.0, 23523.0, 23390.0, 23342.0, 23276.0, 23304.0, 23410.0, 23494.0, 23369.0, 23378.0, 23454.0, 23531.0, 23454.0, 23463.0, 23405.0, 23384.0, 23373.0, 23354.0, 23342.0, 23353.0, 23351.0, 23390.0, 23355.0, 23339.0, 23355.0, 23353.0, 23341.0, 23363.0, 23453.0, 23552.0, 23461.0, 23388.0, 23278.0, 23204.0, 23276.0, 23371.0, 23386.0, 23336.0, 23317.0, 23333.0, 23394.0, 23397.0, 23303.0, 23275.0, 23225.0, 23273.0, 23340.0, 23412.0, 23435.0, 23396.0, 23493.0, 23474.0, 23386.0, 23325.0, 23314.0, 23336.0, 23382.0, 23456.0, 23461.0, 23374.0, 23322.0, 23306.0, 23349.0, 23378.0, 23365.0, 23334.0, 23375.0, 23358.0, 23366.0, 23397.0, 23432.0, 23423.0, 23376.0, 23415.0, 23437.0, 23378.0, 23389.0, 23331.0, 23226.0, 23217.0, 23379.0, 23478.0, 23452.0, 23327.0, 23285.0, 23357.0]
    },
    "slices": {}
  }
}