{
  "AcquisitionMatrixPE": 104,
  "AcquisitionNumber": 1,
  "AcquisitionTime": "11:27:48.960000",
  "BandwidthPerPixelPhaseEncode": 17.17,
  "BaseResolution": 104,
  "BodyPartExamined": "BRAIN",
  "CoilString": "HC1-7;NC1_2",
  "ConsistencyInfo": "N4_VE11C_LATEST_20160120",
  "ConversionSoftware": "dcm2niix",
  "ConversionSoftwareVersion": "v1.0.20190902",
  "DerivedVendorReportedEchoSpacing": 0.000560011,
  "DeviceSerialNumber": "167006",
  "DwellTime": 2.1e-06,
  "EchoTime": 0.037,
  "EchoTrainLength": 104,
  "EffectiveEchoSpacing": 0.000560011,
  "FlipAngle": 52,
  "ImageComments": "Unaliased_MB4_PE3_LB",
  "ImageOrientationPatientDICOM": [0.999591, 0.00787951, 0.0274939, 0.00750202, 0.855407, -0.517902],
  "ImageType": [
    "ORIGINAL",
    "PRIMARY",
    "P",
    "MB",
    "ND",
    "MOSAIC"
],
  "ImagingFrequency": 123.259,
  "InPlanePhaseEncodingDirectionDICOM": "COL",
  "InstitutionAddress": "Chemin_Queen-Mary_4565_Montreal_District_CA_H3W_1W5",
  "InstitutionName": "IUGM",
  "InstitutionalDepartmentName": "Department",
  "MRAcquisitionType": "2D",
  "MagneticFieldStrength": 3,
  "Manufacturer": "Siemens",
  "ManufacturersModelName": "Prisma_fit",
  "Modality": "MR",
  "MultibandAccelerationFactor": 4,
  "PartialFourier": 1,
  "PatientPosition": "HFS",
  "PercentPhaseFOV": 100,
  "PhaseEncodingDirection": "j",
  "PhaseEncodingSteps": 104,
  "PhaseResolution": 1,
  "PixelBandwidth": 2290,
  "ProcedureStepDescription": "localizers_retinotopy",
  "ProtocolName": "func_task-wedges",
  "PulseSequenceDetails": "%CustomerSeq%_cmrr_mbep2d_bold",
  "ReceiveCoilActiveElements": "HC1-7;NC1,2",
  "ReceiveCoilName": "HeadNeck_64",
  "ReconMatrixPE": 104,
  "RepetitionTime": 1.49,
  "SAR": 0.0566186,
  "ScanOptions": "FS",
  "ScanningSequence": "EP",
  "SequenceName": "epfid2d1_104",
  "SequenceVariant": "SK_SS",
  "SeriesDescription": "func_task-wedges",
  "SeriesNumber": 11,
  "ShimSetting": [617, -7186, -8866, 299, 1, -155, -5, -35],
  "SliceThickness": 2,
  "SliceTiming": [0, 0.7825, 0.0975, 0.88, 0.195, 0.98, 0.2925, 1.0775, 0.39, 1.175, 0.49, 1.2725, 0.5875, 1.37, 0.685, 0, 0.7825, 0.0975, 0.88, 0.195, 0.98, 0.2925, 1.0775, 0.39, 1.175, 0.49, 1.2725, 0.5875, 1.37, 0.685, 0, 0.7825, 0.0975, 0.88, 0.195, 0.98, 0.2925, 1.0775, 0.39, 1.175, 0.49, 1.2725, 0.5875, 1.37, 0.685, 0, 0.7825, 0.0975, 0.88, 0.195, 0.98, 0.2925, 1.0775, 0.39, 1.175, 0.49, 1.2725, 0.5875, 1.37, 0.685],
  "SoftwareVersions": "syngo_MR_E11",
  "SpacingBetweenSlices": 2,
  "StationName": "MRC35049",
  "TaskName": "wedges",
  "TotalReadoutTime": 0.0576811,
  "TxRefAmp": 288.046,
  "WipMemBlock": "8b2b0a1a-d8cd-434f-8d2d-700711e6161a||Sequence: R016 ve11c/master r/e634e98; Dec 19 2017 11:00:25 by eja",
  "dcmmeta_affine": [
    [-1.999181866645813, 0.015004035085439682, 0.05519859492778778, 104.91273498535156],
    [-0.01575901359319687, 1.7108145952224731, -1.0357919931411743, -50.0696907043457],
    [0.05498781055212021, 1.0358030796051025, 1.7099965810775757, -101.8006820678711],
    [0.0, 0.0, 0.0, 1.0]
],
  "dcmmeta_reorient_transform": [
    [0.0, -1.0, 0.0, 103.0],
    [1.0, 0.0, 0.0, 0.0],
    [0.0, 0.0, 1.0, 0.0],
    [0.0, 0.0, 0.0, 1.0]
],
  "dcmmeta_shape": [104, 104, 60, 202],
  "dcmmeta_slice_dim": 2,
  "dcmmeta_version": 0.6,
  "global": {
    "const": {
      "AcquisitionMatrix": [104, 0, 0, 104],
      "AngioFlag": "N",
      "BitsAllocated": 16,
      "BitsStored": 16,
      "BodyPartExamined": "BRAIN",
      "Columns": 832,
      "EchoNumbers": 1,
      "EchoTime": 37.0,
      "EchoTrainLength": 104,
      "FlipAngle": 52.0,
      "HighBit": 15,
      "ImageOrientationPatient": [0.9995909155871, 0.00787950703416, 0.02749390559082, 0.00750201760017, 0.85540732460104, -0.5179015628001],
      "ImagePositionPatient": [-839.62180967534, -754.61703253132, 361.90381435283],
      "ImageType": [
        "ORIGINAL",
        "PRIMARY",
        "P",
        "MB",
        "ND",
        "MOSAIC"
],
      "ImagedNucleus": "1H",
      "ImagingFrequency": 123.258946,
      "InPlanePhaseEncodingDirection": "COL",
      "LargestImagePixelValue": 4095,
      "MRAcquisitionType": "2D",
      "MagneticFieldStrength": 3.0,
      "Manufacturer": "SIEMENS",
      "ManufacturerModelName": "Prisma_fit",
      "Modality": "MR",
      "NumberOfAverages": 1.0,
      "NumberOfPhaseEncodingSteps": 104,
      "PercentPhaseFieldOfView": 100.0,
      "PercentSampling": 100.0,
      "PerformedProcedureStepStartTime": "112430.686000",
      "PhotometricInterpretation": "MONOCHROME2",
      "PixelBandwidth": 2290.0,
      "PixelRepresentation": 0,
      "PixelSpacing": [2.0, 2.0],
      "ProtocolName": "func_task-wedges",
      "RepetitionTime": 1490.0,
      "RescaleIntercept": -4096.0,
      "RescaleSlope": 2.0,
      "RescaleType": "US",
      "Rows": 832,
      "SAR": 0.05661856748657,
      "SamplesPerPixel": 1,
      "ScanOptions": "FS",
      "ScanningSequence": "EP",
      "SequenceName": "epfid2d1_104",
      "SequenceVariant": [
        "SK",
        "SS"
],
      "SeriesDescription": "func_task-wedges",
      "SeriesNumber": 11,
      "SeriesTime": "112905.307000",
      "SliceLocation": -58.213000135389,
      "SliceThickness": 2.0,
      "SmallestImagePixelValue": 0,
      "SoftwareVersions": "syngo MR E11",
      "SpacingBetweenSlices": 2.0000000385964,
      "SpecificCharacterSet": "ISO_IR 100",
      "StudyID": "1",
      "StudyTime": "112430.601000",
      "TransmitCoilName": "Body",
      "VariableFlipAngleFlag": "N",
      "WindowCenterWidthExplanation": "Algo1",
      "dBdt": 0.0},
    "slices": {}
  },
  "time": {
    "samples": {
      "AcquisitionNumber": [1, 2, 3, 4, 5, 6, 7, 8, 9, 10, 11, 12, 13, 14, 15, 16, 17, 18, 19, 20, 21, 22, 23, 24, 25, 26, 27, 28, 29, 30, 31, 32, 33, 34, 35, 36, 37, 38, 39, 40, 41, 42, 43, 44, 45, 46, 47, 48, 49, 50, 51, 52, 53, 54, 55, 56, 57, 58, 59, 60, 61, 62, 63, 64, 65, 66, 67, 68, 69, 70, 71, 72, 73, 74, 75, 76, 77, 78, 79, 80, 81, 82, 83, 84, 85, 86, 87, 88, 89, 90, 91, 92, 93, 94, 95, 96, 97, 98, 99, 100, 101, 102, 103, 104, 105, 106, 107, 108, 109, 110, 111, 112, 113, 114, 115, 116, 117, 118, 119, 120, 121, 122, 123, 124, 125, 126, 127, 128, 129, 130, 131, 132, 133, 134, 135, 136, 137, 138, 139, 140, 141, 142, 143, 144, 145, 146, 147, 148, 149, 150, 151, 152, 153, 154, 155, 156, 157, 158, 159, 160, 161, 162, 163, 164, 165, 166, 167, 168, 169, 170, 171, 172, 173, 174, 175, 176, 177, 178, 179, 180, 181, 182, 183, 184, 185, 186, 187, 188, 189, 190, 191, 192, 193, 194, 195, 196, 197, 198, 199, 200, 201, 202],
      "AcquisitionTime": ["112748.960000", "112750.450000", "112751.940000", "112753.430000", "112754.920000", "112756.410000", "112757.900000", "112759.390000", "112800.880000", "112802.370000", "112803.860000", "112805.350000", "112806.840000", "112808.330000", "112809.820000", "112811.310000", "112812.800000", "112814.290000", "112815.780000", "112817.270000", "112818.760000", "112820.250000", "112821.740000", "112823.230000", "112824.720000", "112826.210000", "112827.700000", "112829.190000", "112830.680000", "112832.170000", "112833.660000", "112835.150000", "112836.640000", "112838.130000", "112839.620000", "112841.110000", "112842.600000", "112844.090000", "112845.580000", "112847.070000", "112848.560000", "112850.050000", "112851.540000", "112853.030000", "112854.520000", "112856.010000", "112857.500000", "112858.990000", "112900.480000", "112901.970000", "112903.460000", "112904.950000", "112906.440000", "112907.930000", "112909.420000", "112910.910000", "112912.400000", "112913.890000", "112915.380000", "112916.870000", "112918.360000", "112919.850000", "112921.340000", "112922.830000", "112924.320000", "112925.810000", "112927.300000", "112928.790000", "112930.280000", "112931.770000", "112933.260000", "112934.750000", "112936.240000", "112937.730000", "112939.220000", "112940.710000", "112942.200000", "112943.690000", "112945.180000", "112946.670000", "112948.160000", "112949.650000", "112951.140000", "112952.630000", "112954.120000", "112955.610000", "112957.100000", "112958.590000", "113000.080000", "113001.570000", "113003.060000", "113004.550000", "113006.040000", "113007.530000", "113009.020000", "113010.510000", "113012.000000", "113013.490000", "113014.980000", "113016.470000", "113017.960000", "113019.450000", "113020.940000", "113022.430000", "113023.920000", "113025.410000", "113026.900000", "113028.390000", "113029.880000", "113031.370000", "113032.860000", "113034.350000", "113035.840000", "113037.330000", "113038.820000", "113040.310000", "113041.800000", "113043.290000", "113044.780000", "113046.270000", "113047.760000", "113049.250000", "113050.740000", "113052.230000", "113053.720000", "113055.210000", "113056.700000", "113058.190000", "113059.680000", "113101.170000", "113102.660000", "113104.150000", "113105.640000", "113107.130000", "113108.620000", "113110.110000", "113111.600000", "113113.090000", "113114.580000", "113116.070000", "113117.560000", "113119.050000", "113120.540000", "113122.030000", "113123.520000", "113125.010000", "113126.500000", "113127.990000", "113129.480000", "113130.970000", "113132.460000", "113133.950000", "113135.440000", "113136.930000", "113138.420000", "113139.910000", "113141.400000", "113142.890000", "113144.380000", "113145.870000", "113147.360000", "113148.850000", "113150.340000", "113151.830000", "113153.320000", "113154.810000", "113156.300000", "113157.790000", "113159.280000", "113200.770000", "113202.260000", "113203.750000", "113205.240000", "113206.730000", "113208.220000", "113209.710000", "113211.200000", "113212.690000", "113214.180000", "113215.670000", "113217.160000", "113218.650000", "113220.140000", "113221.630000", "113223.120000", "113224.610000", "113226.100000", "113227.590000", "113229.080000", "113230.570000", "113232.060000", "113233.550000", "113235.040000", "113236.530000", "113238.020000", "113239.510000", "113241.000000", "113242.490000", "113243.980000", "113245.470000", "113246.960000", "113248.450000"],
      "ContentTime": ["112905.309000", "112905.312000", "112905.328000", "112905.331000", "112905.333000", "112905.336000", "112905.338000", "112905.341000", "112905.343000", "112905.346000", "112905.349000", "112905.351000", "112905.354000", "112905.356000", "112905.359000", "112905.362000", "112905.364000", "112905.367000", "112905.369000", "112905.372000", "112905.374000", "112905.377000", "112925.267000", "112925.269000", "112925.272000", "112925.275000", "112925.277000", "112925.280000", "112925.283000", "112925.286000", "112925.288000", "112925.291000", "112925.293000", "112925.296000", "112925.298000", "112925.301000", "112925.304000", "112925.306000", "112925.309000", "112925.313000", "112925.316000", "112925.319000", "112945.277000", "112945.280000", "112945.282000", "112945.285000", "112945.288000", "112945.291000", "112945.293000", "112945.296000", "112945.299000", "112945.301000", "112945.304000", "112945.307000", "112945.309000", "112945.312000", "112945.315000", "112945.317000", "112945.320000", "112945.322000", "112945.325000", "112945.328000", "113005.282000", "113005.285000", "113005.288000", "113005.290000", "113005.293000", "113005.295000", "113005.298000", "113005.301000", "113005.303000", "113005.306000", "113005.308000", "113005.311000", "113005.313000", "113005.316000", "113005.319000", "113005.321000", "113005.324000", "113005.326000", "113005.329000", "113005.332000", "113005.334000", "113025.264000", "113025.267000", "113025.269000", "113025.272000", "113025.274000", "113025.277000", "113025.280000", "113025.282000", "113025.285000", "113025.287000", "113025.290000", "113025.293000", "113025.295000", "113025.298000", "113025.300000", "113025.303000", "113025.305000", "113025.308000", "113025.311000", "113025.313000", "113105.319000", "113105.322000", "113105.325000", "113105.327000", "113105.330000", "113105.333000", "113105.335000", "113105.338000", "113105.340000", "113105.343000", "113105.355000", "113105.358000", "113105.360000", "113105.363000", "113105.366000", "113105.369000", "113105.371000", "113105.374000", "113105.376000", "113105.379000", "113105.382000", "113105.384000", "113105.387000", "113105.389000", "113105.392000", "113105.395000", "113105.398000", "113105.401000", "113145.293000", "113145.295000", "113145.298000", "113145.301000", "113145.303000", "113145.306000", "113145.309000", "113145.311000", "113145.314000", "113145.316000", "113145.319000", "113145.322000", "113145.324000", "113145.327000", "113145.329000", "113145.332000", "113145.334000", "113145.337000", "113145.340000", "113145.342000", "113145.345000", "113145.347000", "113145.350000", "113145.353000", "113145.355000", "113145.358000", "113145.361000", "113225.323000", "113225.326000", "113225.329000", "113225.332000", "113225.334000", "113225.338000", "113225.340000", "113225.343000", "113225.345000", "113225.348000", "113225.351000", "113225.353000", "113225.356000", "113225.359000", "113225.362000", "113225.365000", "113225.368000", "113225.370000", "113225.373000", "113225.376000", "113225.378000", "113225.381000", "113225.383000", "113225.386000", "113225.389000", "113225.392000", "113250.869000", "113250.872000", "113250.875000", "113250.878000", "113250.881000", "113250.884000", "113250.887000", "113250.890000", "113250.893000", "113250.896000", "113250.898000", "113250.901000", "113250.909000", "113250.911000", "113250.914000", "113250.917000", "113250.919000", "113250.922000"],
      "InstanceCreationTime": ["112905.309000", "112905.312000", "112905.328000", "112905.331000", "112905.333000", "112905.336000", "112905.338000", "112905.341000", "112905.343000", "112905.346000", "112905.349000", "112905.351000", "112905.354000", "112905.356000", "112905.359000", "112905.362000", "112905.364000", "112905.367000", "112905.369000", "112905.372000", "112905.374000", "112905.377000", "112925.267000", "112925.269000", "112925.272000", "112925.275000", "112925.277000", "112925.280000", "112925.283000", "112925.286000", "112925.288000", "112925.291000", "112925.293000", "112925.296000", "112925.298000", "112925.301000", "112925.304000", "112925.306000", "112925.309000", "112925.313000", "112925.316000", "112925.319000", "112945.277000", "112945.280000", "112945.282000", "112945.285000", "112945.288000", "112945.291000", "112945.293000", "112945.296000", "112945.299000", "112945.301000", "112945.304000", "112945.307000", "112945.309000", "112945.312000", "112945.315000", "112945.317000", "112945.320000", "112945.322000", "112945.325000", "112945.328000", "113005.282000", "113005.285000", "113005.288000", "113005.290000", "113005.293000", "113005.295000", "113005.298000", "113005.301000", "113005.303000", "113005.306000", "113005.308000", "113005.311000", "113005.313000", "113005.316000", "113005.319000", "113005.321000", "113005.324000", "113005.326000", "113005.329000", "113005.332000", "113005.334000", "113025.264000", "113025.267000", "113025.269000", "113025.272000", "113025.274000", "113025.277000", "113025.280000", "113025.282000", "113025.285000", "113025.287000", "113025.290000", "113025.293000", "113025.295000", "113025.298000", "113025.300000", "113025.303000", "113025.305000", "113025.308000", "113025.311000", "113025.313000", "113105.319000", "113105.322000", "113105.325000", "113105.327000", "113105.330000", "113105.333000", "113105.335000", "113105.338000", "113105.340000", "113105.343000", "113105.355000", "113105.358000", "113105.360000", "113105.363000", "113105.366000", "113105.369000", "113105.371000", "113105.374000", "113105.376000", "113105.379000", "113105.382000", "113105.384000", "113105.387000", "113105.389000", "113105.392000", "113105.395000", "113105.398000", "113105.401000", "113145.293000", "113145.295000", "113145.298000", "113145.301000", "113145.303000", "113145.306000", "113145.309000", "113145.311000", "113145.314000", "113145.316000", "113145.319000", "113145.322000", "113145.324000", "113145.327000", "113145.329000", "113145.332000", "113145.334000", "113145.337000", "113145.340000", "113145.342000", "113145.345000", "113145.347000", "113145.350000", "113145.353000", "113145.355000", "113145.358000", "113145.361000", "113225.323000", "113225.326000", "113225.329000", "113225.332000", "113225.334000", "113225.338000", "113225.340000", "113225.343000", "113225.345000", "113225.348000", "113225.351000", "113225.353000", "113225.356000", "113225.359000", "113225.362000", "113225.365000", "113225.368000", "113225.370000", "113225.373000", "113225.376000", "113225.378000", "113225.381000", "113225.383000", "113225.386000", "113225.389000", "113225.392000", "113250.869000", "113250.872000", "113250.875000", "113250.878000", "113250.881000", "113250.884000", "113250.887000", "113250.890000", "113250.893000", "113250.896000", "113250.898000", "113250.901000", "113250.909000", "113250.911000", "113250.914000", "113250.917000", "113250.919000", "113250.922000"],
      "InstanceNumber": [1, 2, 3, 4, 5, 6, 7, 8, 9, 10, 11, 12, 13, 14, 15, 16, 17, 18, 19, 20, 21, 22, 23, 24, 25, 26, 27, 28, 29, 30, 31, 32, 33, 34, 35, 36, 37, 38, 39, 40, 41, 42, 43, 44, 45, 46, 47, 48, 49, 50, 51, 52, 53, 54, 55, 56, 57, 58, 59, 60, 61, 62, 63, 64, 65, 66, 67, 68, 69, 70, 71, 72, 73, 74, 75, 76, 77, 78, 79, 80, 81, 82, 83, 84, 85, 86, 87, 88, 89, 90, 91, 92, 93, 94, 95, 96, 97, 98, 99, 100, 101, 102, 103, 104, 105, 106, 107, 108, 109, 110, 111, 112, 113, 114, 115, 116, 117, 118, 119, 120, 121, 122, 123, 124, 125, 126, 127, 128, 129, 130, 131, 132, 133, 134, 135, 136, 137, 138, 139, 140, 141, 142, 143, 144, 145, 146, 147, 148, 149, 150, 151, 152, 153, 154, 155, 156, 157, 158, 159, 160, 161, 162, 163, 164, 165, 166, 167, 168, 169, 170, 171, 172, 173, 174, 175, 176, 177, 178, 179, 180, 181, 182, 183, 184, 185, 186, 187, 188, 189, 190, 191, 192, 193, 194, 195, 196, 197, 198, 199, 200, 201, 202],
      "WindowCenter": [4692.0, 4710.0, 4710.0, 4690.0, 4694.0, 4710.0, 4812.0, 4824.0, 4718.0, 4700.0, 4814.0, 4852.0, 4812.0, 4726.0, 4716.0, 4744.0, 4778.0, 4814.0, 4876.0, 4850.0, 4718.0, 4674.0, 4870.0, 4890.0, 4880.0, 4778.0, 4690.0, 4746.0, 4810.0, 4846.0, 4904.0, 4848.0, 4700.0, 4752.0, 4874.0, 4882.0, 4816.0, 4702.0, 4696.0, 4746.0, 4816.0, 4902.0, 4880.0, 4756.0, 4678.0, 4808.0, 4882.0, 4878.0, 4756.0, 4710.0, 4740.0, 4812.0, 4816.0, 4846.0, 4782.0, 4690.0, 4680.0, 4676.0, 4722.0, 4748.0, 4698.0, 4704.0, 4706.0, 4754.0, 4744.0, 4734.0, 4758.0, 4742.0, 4690.0, 4700.0, 4748.0, 4752.0, 4702.0, 4684.0, 4704.0, 4738.0, 4770.0, 4740.0, 4742.0, 4786.0, 4742.0, 4682.0, 4752.0, 4810.0, 4722.0, 4704.0, 4694.0, 4814.0, 4852.0, 4816.0, 4704.0, 4700.0, 4778.0, 4778.0, 4748.0, 4702.0, 4694.0, 4748.0, 4852.0, 4884.0, 4820.0, 4690.0, 4750.0, 4850.0, 4846.0, 4784.0, 4706.0, 4778.0, 4846.0, 4818.0, 4776.0, 4706.0, 4688.0, 4692.0, 4660.0, 4696.0, 4726.0, 4726.0, 4702.0, 4692.0, 4730.0, 4772.0, 4880.0, 4882.0, 4760.0, 4678.0, 4840.0, 4886.0, 4846.0, 4726.0, 4690.0, 4744.0, 4808.0, 4846.0, 4906.0, 4858.0, 4710.0, 4718.0, 4876.0, 4880.0, 4840.0, 4726.0, 4694.0, 4822.0, 4930.0, 4906.0, 4792.0, 4686.0, 4748.0, 4838.0, 4840.0, 4780.0, 4702.0, 4694.0, 4748.0, 4850.0, 4934.0, 4884.0, 4716.0, 4746.0, 4876.0, 4884.0, 4846.0, 4730.0, 4696.0, 4816.0, 4924.0, 4948.0, 4946.0, 4904.0, 4876.0, 4874.0, 4850.0, 4846.0, 4846.0, 4844.0, 4848.0, 4900.0, 4948.0, 4946.0, 4928.0, 4878.0, 4872.0, 4846.0, 4846.0, 4846.0, 4848.0, 4822.0, 4842.0, 4902.0, 4948.0, 4948.0, 4928.0, 4908.0, 4878.0, 4876.0, 4872.0, 4850.0, 4848.0, 4848.0, 4872.0, 4928.0],
      "WindowWidth": [18462.0, 18496.0, 18498.0, 18466.0, 18464.0, 18452.0, 18520.0, 18502.0, 18452.0, 18510.0, 18676.0, 18720.0, 18668.0, 18544.0, 18494.0, 18488.0, 18520.0, 18548.0, 18588.0, 18548.0, 18448.0, 18474.0, 18748.0, 18742.0, 18750.0, 18624.0, 18468.0, 18488.0, 18552.0, 18574.0, 18618.0, 18560.0, 18456.0, 18596.0, 18752.0, 18750.0, 18678.0, 18506.0, 18456.0, 18490.0, 18550.0, 18614.0, 18578.0, 18476.0, 18468.0, 18670.0, 18746.0, 18746.0, 18594.0, 18500.0, 18488.0, 18546.0, 18546.0, 18574.0, 18506.0, 18462.0, 18470.0, 18468.0, 18550.0, 18584.0, 18510.0, 18496.0, 18458.0, 18484.0, 18482.0, 18488.0, 18476.0, 18484.0, 18462.0, 18510.0, 18584.0, 18584.0, 18504.0, 18462.0, 18458.0, 18488.0, 18518.0, 18488.0, 18482.0, 18502.0, 18478.0, 18470.0, 18596.0, 18678.0, 18546.0, 18500.0, 18456.0, 18530.0, 18554.0, 18530.0, 18458.0, 18506.0, 18626.0, 18622.0, 18584.0, 18502.0, 18462.0, 18486.0, 18560.0, 18570.0, 18530.0, 18454.0, 18590.0, 18716.0, 18716.0, 18632.0, 18502.0, 18508.0, 18566.0, 18552.0, 18514.0, 18460.0, 18462.0, 18460.0, 18428.0, 18496.0, 18554.0, 18552.0, 18504.0, 18458.0, 18488.0, 18520.0, 18586.0, 18570.0, 18470.0, 18476.0, 18714.0, 18746.0, 18716.0, 18552.0, 18456.0, 18484.0, 18536.0, 18566.0, 18606.0, 18536.0, 18452.0, 18550.0, 18758.0, 18754.0, 18712.0, 18548.0, 18456.0, 18532.0, 18638.0, 18602.0, 18500.0, 18456.0, 18594.0, 18714.0, 18716.0, 18634.0, 18510.0, 18450.0, 18488.0, 18570.0, 18636.0, 18570.0, 18452.0, 18590.0, 18750.0, 18750.0, 18714.0, 18552.0, 18456.0, 18544.0, 18644.0, 18684.0, 18674.0, 18618.0, 18590.0, 18600.0, 18572.0, 18570.0, 18572.0, 18576.0, 18570.0, 18616.0, 18690.0, 18692.0, 18648.0, 18588.0, 18598.0, 18568.0, 18564.0, 18570.0, 18570.0, 18540.0, 18568.0, 18618.0, 18684.0, 18690.0, 18648.0, 18622.0, 18592.0, 18598.0, 18600.0, 18572.0, 18572.0, 18574.0, 18600.0, 18650.0]
    },
    "slices": {}
  }
}