{
  "AcquisitionMatrixPE": 104,
  "AcquisitionNumber": 1,
  "AcquisitionTime": "18:35:11.155000",
  "BandwidthPerPixelPhaseEncode": 17.17,
  "BaseResolution": 104,
  "BodyPartExamined": "BRAIN",
  "CoilCombinationMethod": "Sum of Squares",
  "ConsistencyInfo": "N4_VE11C_LATEST_20160120",
  "ConversionSoftware": "dcm2niix",
  "ConversionSoftwareVersion": "v1.0.20230411",
  "DerivedVendorReportedEchoSpacing": 0.000560011,
  "DeviceSerialNumber": "167006",
  "DwellTime": 2.1e-06,
  "EchoTime": 0.037,
  "EchoTrainLength": 104,
  "EffectiveEchoSpacing": 0.000560011,
  "FlipAngle": 52,
  "HeudiconvVersion": "0.5.3.post861+ge7d3c7f",
  "ImageComments": "Unaliased MB4/PE3/LB",
  "ImageOrientationPatientDICOM": [0.999689, -0.0212623, 0.0130153, 0.0246064, 0.925366, -0.378276],
  "ImageOrientationText": "Tra>Cor(-22.2)>Sag(0.2)",
  "ImageType": [
    "ORIGINAL",
    "PRIMARY",
    "M",
    "MB",
    "ND",
    "MOSAIC"
],
  "ImagingFrequency": 123.249573,
  "InPlanePhaseEncodingDirectionDICOM": "COL",
  "InstitutionAddress": "Chemin Queen-Mary 4565,Montreal,District,CA,H3W 1W5",
  "InstitutionName": "IUGM",
  "InstitutionalDepartmentName": "Department",
  "MRAcquisitionType": "2D",
  "MagneticFieldStrength": 3,
  "Manufacturer": "Siemens",
  "ManufacturersModelName": "Prisma_fit",
  "MatrixCoilMode": "SENSE",
  "Modality": "MR",
  "MultibandAccelerationFactor": 4,
  "NonlinearGradientCorrection": false,
  "PartialFourier": 1,
  "PatientPosition": "HFS",
  "PercentPhaseFOV": 100,
  "PercentSampling": 100,
  "PhaseEncodingDirection": "j",
  "PhaseEncodingSteps": 104,
  "PhaseResolution": 1,
  "PixelBandwidth": 2290,
  "ProcedureStepDescription": "localizers^retinotopy",
  "ProtocolName": "func_task-rings",
  "PulseSequenceDetails": "%CustomerSeq%\\cmrr_mbep2d_bold",
  "ReceiveCoilActiveElements": "HC1-7;NC1,2",
  "ReceiveCoilName": "HeadNeck_64",
  "ReconMatrixPE": 104,
  "RepetitionTime": 1.49,
  "SAR": 0.0580041,
  "ScanOptions": "FS",
  "ScanningSequence": "EP",
  "SequenceName": "epfid2d1_104",
  "SequenceVariant": "SK\\SS",
  "SeriesDescription": "func_task-rings",
  "SeriesNumber": 16,
  "ShimSetting": [582, -7267, -8816, 388, 6, -298, -7, 103],
  "SliceThickness": 2,
  "SliceTiming": [0, 0.7825, 0.0975, 0.88, 0.195, 0.98, 0.2925, 1.0775, 0.3925, 1.175, 0.49, 1.2725, 0.5875, 1.37, 0.685, 0, 0.7825, 0.0975, 0.88, 0.195, 0.98, 0.2925, 1.0775, 0.3925, 1.175, 0.49, 1.2725, 0.5875, 1.37, 0.685, 0, 0.7825, 0.0975, 0.88, 0.195, 0.98, 0.2925, 1.0775, 0.3925, 1.175, 0.49, 1.2725, 0.5875, 1.37, 0.685, 0, 0.7825, 0.0975, 0.88, 0.195, 0.98, 0.2925, 1.0775, 0.3925, 1.175, 0.49, 1.2725, 0.5875, 1.37, 0.685],
  "SoftwareVersions": "syngo MR E11",
  "SpacingBetweenSlices": 2,
  "StationName": "MRC35049",
  "TaskName": "rings",
  "TotalReadoutTime": 0.0576811,
  "TxRefAmp": 269.345,
  "WipMemBlock": "ea18a041-14f9-48eb-bcfb-99c345337908||Sequence: R017 ve11c/master r/75a17815+; Jun 28 2022 16:32:11 by eja",
  "dcmmeta_affine": [
    [-1.9993784427642822, 0.04921288043260574, 0.008001720532774925, 102.10659790039062],
    [0.04252465441823006, 1.8507317304611206, -0.7569568753242493, -62.61049270629883],
    [0.026030534878373146, 0.7565515041351318, 1.8512028455734253, -65.84452819824219],
    [0.0, 0.0, 0.0, 1.0]
],
  "dcmmeta_reorient_transform": [
    [0.0, -1.0, 0.0, 103.0],
    [1.0, 0.0, 0.0, 0.0],
    [0.0, 0.0, 1.0, 0.0],
    [0.0, 0.0, 0.0, 1.0]
],
  "dcmmeta_shape": [104, 104, 60, 202],
  "dcmmeta_slice_dim": 2,
  "dcmmeta_version": 0.6,
  "global": {
    "const": {
      "AcquisitionMatrix": [104, 0, 0, 104],
      "AngioFlag": "N",
      "BitsAllocated": 16,
      "BitsStored": 16,
      "BodyPartExamined": "BRAIN",
      "Columns": 832,
      "EchoNumbers": 1,
      "EchoTime": 37.0,
      "EchoTrainLength": 104,
      "FlipAngle": 52.0,
      "HighBit": 15,
      "ImageOrientationPatient": [0.99968920983458, -0.0212623273769, 0.01301526699053, 0.0246064392933, 0.92536585786796, -0.3782757621598],
      "ImagePositionPatient": [-852.86275958584, -786.20224314248, 277.989919313],
      "ImageType": [
        "ORIGINAL",
        "PRIMARY",
        "M",
        "MB",
        "ND",
        "MOSAIC"
],
      "ImagedNucleus": "1H",
      "ImagingFrequency": 123.249573,
      "InPlanePhaseEncodingDirection": "COL",
      "MRAcquisitionType": "2D",
      "MagneticFieldStrength": 3.0,
      "Manufacturer": "SIEMENS",
      "ManufacturerModelName": "Prisma_fit",
      "Modality": "MR",
      "NumberOfAverages": 1.0,
      "NumberOfPhaseEncodingSteps": 104,
      "PercentPhaseFieldOfView": 100.0,
      "PercentSampling": 100.0,
      "PerformedProcedureStepStartTime": "182254.279000",
      "PhotometricInterpretation": "MONOCHROME2",
      "PixelBandwidth": 2290.0,
      "PixelRepresentation": 0,
      "PixelSpacing": [2.0, 2.0],
      "ProtocolName": "func_task-rings",
      "RepetitionTime": 1490.0,
      "Rows": 832,
      "SAR": 0.05800406431685,
      "SamplesPerPixel": 1,
      "ScanOptions": "FS",
      "ScanningSequence": "EP",
      "SequenceName": "epfid2d1_104",
      "SequenceVariant": [
        "SK",
        "SS"
],
      "SeriesDescription": "func_task-rings",
      "SeriesNumber": 16,
      "SeriesTime": "183642.330000",
      "SliceLocation": -36.840553617421,
      "SliceThickness": 2.0,
      "SmallestImagePixelValue": 0,
      "SoftwareVersions": "syngo MR E11",
      "SpacingBetweenSlices": 1.9999999406212,
      "SpecificCharacterSet": "ISO_IR 100",
      "StudyID": "1",
      "StudyTime": "182254.194000",
      "TransmitCoilName": "Body",
      "VariableFlipAngleFlag": "N",
      "WindowCenterWidthExplanation": "Algo1",
      "dBdt": 0.0},
    "slices": {}
  },
  "time": {
    "samples": {
      "AcquisitionNumber": [1, 2, 3, 4, 5, 6, 7, 8, 9, 10, 11, 12, 13, 14, 15, 16, 17, 18, 19, 20, 21, 22, 23, 24, 25, 26, 27, 28, 29, 30, 31, 32, 33, 34, 35, 36, 37, 38, 39, 40, 41, 42, 43, 44, 45, 46, 47, 48, 49, 50, 51, 52, 53, 54, 55, 56, 57, 58, 59, 60, 61, 62, 63, 64, 65, 66, 67, 68, 69, 70, 71, 72, 73, 74, 75, 76, 77, 78, 79, 80, 81, 82, 83, 84, 85, 86, 87, 88, 89, 90, 91, 92, 93, 94, 95, 96, 97, 98, 99, 100, 101, 102, 103, 104, 105, 106, 107, 108, 109, 110, 111, 112, 113, 114, 115, 116, 117, 118, 119, 120, 121, 122, 123, 124, 125, 126, 127, 128, 129, 130, 131, 132, 133, 134, 135, 136, 137, 138, 139, 140, 141, 142, 143, 144, 145, 146, 147, 148, 149, 150, 151, 152, 153, 154, 155, 156, 157, 158, 159, 160, 161, 162, 163, 164, 165, 166, 167, 168, 169, 170, 171, 172, 173, 174, 175, 176, 177, 178, 179, 180, 181, 182, 183, 184, 185, 186, 187, 188, 189, 190, 191, 192, 193, 194, 195, 196, 197, 198, 199, 200, 201, 202],
      "AcquisitionTime": ["183511.155000", "183512.645000", "183514.135000", "183515.625000", "183517.115000", "183518.605000", "183520.095000", "183521.585000", "183523.075000", "183524.565000", "183526.055000", "183527.545000", "183529.035000", "183530.525000", "183532.015000", "183533.505000", "183534.995000", "183536.485000", "183537.975000", "183539.465000", "183540.955000", "183542.445000", "183543.935000", "183545.425000", "183546.915000", "183548.405000", "183549.895000", "183551.385000", "183552.875000", "183554.365000", "183555.855000", "183557.345000", "183558.835000", "183600.325000", "183601.815000", "183603.305000", "183604.795000", "183606.285000", "183607.775000", "183609.265000", "183610.755000", "183612.245000", "183613.735000", "183615.225000", "183616.715000", "183618.205000", "183619.695000", "183621.185000", "183622.675000", "183624.165000", "183625.655000", "183627.145000", "183628.635000", "183630.125000", "183631.615000", "183633.105000", "183634.595000", "183636.085000", "183637.575000", "183639.065000", "183640.555000", "183642.045000", "183643.535000", "183645.025000", "183646.515000", "183648.005000", "183649.495000", "183650.985000", "183652.475000", "183653.965000", "183655.455000", "183656.945000", "183658.435000", "183659.925000", "183701.415000", "183702.905000", "183704.395000", "183705.885000", "183707.375000", "183708.865000", "183710.355000", "183711.845000", "183713.335000", "183714.825000", "183716.315000", "183717.805000", "183719.295000", "183720.785000", "183722.275000", "183723.765000", "183725.255000", "183726.745000", "183728.235000", "183729.725000", "183731.215000", "183732.705000", "183734.195000", "183735.685000", "183737.175000", "183738.665000", "183740.155000", "183741.645000", "183743.135000", "183744.625000", "183746.115000", "183747.605000", "183749.095000", "183750.585000", "183752.075000", "183753.565000", "183755.055000", "183756.545000", "183758.035000", "183759.525000", "183801.015000", "183802.505000", "183803.995000", "183805.485000", "183806.975000", "183808.465000", "183809.955000", "183811.445000", "183812.935000", "183814.425000", "183815.915000", "183817.405000", "183818.895000", "183820.385000", "183821.875000", "183823.365000", "183824.855000", "183826.345000", "183827.835000", "183829.325000", "183830.815000", "183832.305000", "183833.795000", "183835.285000", "183836.775000", "183838.265000", "183839.755000", "183841.245000", "183842.735000", "183844.225000", "183845.715000", "183847.205000", "183848.695000", "183850.185000", "183851.675000", "183853.165000", "183854.655000", "183856.145000", "183857.635000", "183859.125000", "183900.615000", "183902.105000", "183903.595000", "183905.085000", "183906.575000", "183908.065000", "183909.555000", "183911.045000", "183912.535000", "183914.025000", "183915.515000", "183917.005000", "183918.495000", "183919.985000", "183921.475000", "183922.965000", "183924.455000", "183925.945000", "183927.435000", "183928.925000", "183930.415000", "183931.905000", "183933.395000", "183934.885000", "183936.375000", "183937.865000", "183939.355000", "183940.845000", "183942.335000", "183943.825000", "183945.315000", "183946.805000", "183948.295000", "183949.785000", "183951.275000", "183952.765000", "183954.255000", "183955.745000", "183957.235000", "183958.725000", "184000.215000", "184001.705000", "184003.195000", "184004.685000", "184006.175000", "184007.665000", "184009.155000", "184010.645000"],
      "ContentTime": ["183642.333000", "183642.337000", "183642.341000", "183642.344000", "183642.348000", "183642.352000", "183642.355000", "183642.358000", "183642.362000", "183642.365000", "183642.369000", "183642.372000", "183642.376000", "183642.379000", "183642.383000", "183642.386000", "183642.390000", "183642.393000", "183642.397000", "183642.400000", "183642.404000", "183642.407000", "183642.411000", "183642.414000", "183642.417000", "183642.421000", "183642.424000", "183642.428000", "183642.431000", "183642.435000", "183642.438000", "183642.442000", "183702.289000", "183702.293000", "183702.303000", "183702.306000", "183702.310000", "183702.313000", "183702.317000", "183702.320000", "183702.324000", "183702.327000", "183702.331000", "183702.334000", "183702.337000", "183702.341000", "183702.344000", "183702.348000", "183702.351000", "183702.355000", "183702.358000", "183702.362000", "183722.289000", "183722.293000", "183722.297000", "183722.300000", "183722.304000", "183722.307000", "183722.310000", "183722.314000", "183722.317000", "183722.321000", "183722.324000", "183722.327000", "183722.331000", "183722.334000", "183722.338000", "183722.358000", "183722.361000", "183722.365000", "183722.368000", "183722.371000", "183742.289000", "183742.293000", "183742.297000", "183742.300000", "183742.304000", "183742.307000", "183742.311000", "183742.314000", "183742.317000", "183742.321000", "183742.324000", "183742.328000", "183742.331000", "183742.334000", "183742.338000", "183742.341000", "183742.345000", "183742.348000", "183742.352000", "183742.355000", "183822.289000", "183822.293000", "183822.297000", "183822.300000", "183822.303000", "183822.307000", "183822.310000", "183822.314000", "183822.317000", "183822.321000", "183822.324000", "183822.328000", "183822.331000", "183822.335000", "183822.338000", "183822.342000", "183822.345000", "183822.349000", "183822.352000", "183822.356000", "183822.359000", "183822.362000", "183822.366000", "183822.370000", "183822.373000", "183822.376000", "183822.380000", "183822.384000", "183822.387000", "183902.289000", "183902.293000", "183902.297000", "183902.300000", "183902.304000", "183902.307000", "183902.311000", "183902.314000", "183902.318000", "183902.321000", "183902.324000", "183902.329000", "183902.333000", "183902.336000", "183902.339000", "183902.343000", "183902.346000", "183902.350000", "183902.353000", "183902.356000", "183902.360000", "183902.364000", "183902.367000", "183902.371000", "183902.374000", "183902.378000", "183942.289000", "183942.293000", "183942.297000", "183942.300000", "183942.308000", "183942.312000", "183942.315000", "183942.318000", "183942.322000", "183942.326000", "183942.329000", "183942.332000", "183942.336000", "183942.340000", "183942.343000", "183942.346000", "183942.350000", "183942.353000", "183942.357000", "183942.360000", "183942.364000", "183942.377000", "183942.380000", "183942.384000", "183942.387000", "183942.391000", "183942.395000", "184022.289000", "184022.293000", "184022.297000", "184022.300000", "184022.304000", "184022.307000", "184022.311000", "184022.314000", "184022.318000", "184022.321000", "184022.325000", "184022.328000", "184022.331000", "184022.335000", "184022.339000", "184022.342000", "184022.346000", "184022.349000", "184022.353000", "184022.356000", "184022.360000", "184022.363000", "184022.367000", "184022.371000", "184022.374000", "184022.377000", "184022.381000", "184022.981000"],
      "InstanceCreationTime": ["183642.333000", "183642.337000", "183642.341000", "183642.344000", "183642.348000", "183642.352000", "183642.355000", "183642.358000", "183642.362000", "183642.365000", "183642.369000", "183642.372000", "183642.376000", "183642.379000", "183642.383000", "183642.386000", "183642.390000", "183642.393000", "183642.397000", "183642.400000", "183642.404000", "183642.407000", "183642.411000", "183642.414000", "183642.417000", "183642.421000", "183642.424000", "183642.428000", "183642.431000", "183642.435000", "183642.438000", "183642.442000", "183702.289000", "183702.293000", "183702.303000", "183702.306000", "183702.310000", "183702.313000", "183702.317000", "183702.320000", "183702.324000", "183702.327000", "183702.331000", "183702.334000", "183702.337000", "183702.341000", "183702.344000", "183702.348000", "183702.351000", "183702.355000", "183702.358000", "183702.362000", "183722.289000", "183722.293000", "183722.297000", "183722.300000", "183722.304000", "183722.307000", "183722.310000", "183722.314000", "183722.317000", "183722.321000", "183722.324000", "183722.327000", "183722.331000", "183722.334000", "183722.338000", "183722.358000", "183722.361000", "183722.365000", "183722.368000", "183722.371000", "183742.289000", "183742.293000", "183742.297000", "183742.300000", "183742.304000", "183742.307000", "183742.311000", "183742.314000", "183742.317000", "183742.321000", "183742.324000", "183742.328000", "183742.331000", "183742.334000", "183742.338000", "183742.341000", "183742.345000", "183742.348000", "183742.352000", "183742.355000", "183822.289000", "183822.293000", "183822.297000", "183822.300000", "183822.303000", "183822.307000", "183822.310000", "183822.314000", "183822.317000", "183822.321000", "183822.324000", "183822.328000", "183822.331000", "183822.335000", "183822.338000", "183822.342000", "183822.345000", "183822.349000", "183822.352000", "183822.356000", "183822.359000", "183822.362000", "183822.366000", "183822.370000", "183822.373000", "183822.376000", "183822.380000", "183822.384000", "183822.387000", "183902.289000", "183902.293000", "183902.297000", "183902.300000", "183902.304000", "183902.307000", "183902.311000", "183902.314000", "183902.318000", "183902.321000", "183902.324000", "183902.329000", "183902.333000", "183902.336000", "183902.339000", "183902.343000", "183902.346000", "183902.350000", "183902.353000", "183902.356000", "183902.360000", "183902.364000", "183902.367000", "183902.371000", "183902.374000", "183902.378000", "183942.289000", "183942.293000", "183942.297000", "183942.300000", "183942.308000", "183942.312000", "183942.315000", "183942.318000", "183942.322000", "183942.326000", "183942.329000", "183942.332000", "183942.336000", "183942.340000", "183942.343000", "183942.346000", "183942.350000", "183942.353000", "183942.357000", "183942.360000", "183942.364000", "183942.377000", "183942.380000", "183942.384000", "183942.387000", "183942.391000", "183942.395000", "184022.289000", "184022.293000", "184022.297000", "184022.300000", "184022.304000", "184022.307000", "184022.311000", "184022.314000", "184022.318000", "184022.321000", "184022.325000", "184022.328000", "184022.331000", "184022.335000", "184022.339000", "184022.342000", "184022.346000", "184022.349000", "184022.353000", "184022.356000", "184022.360000", "184022.363000", "184022.367000", "184022.371000", "184022.374000", "184022.377000", "184022.381000", "184022.981000"],
      "InstanceNumber": [1, 2, 3, 4, 5, 6, 7, 8, 9, 10, 11, 12, 13, 14, 15, 16, 17, 18, 19, 20, 21, 22, 23, 24, 25, 26, 27, 28, 29, 30, 31, 32, 33, 34, 35, 36, 37, 38, 39, 40, 41, 42, 43, 44, 45, 46, 47, 48, 49, 50, 51, 52, 53, 54, 55, 56, 57, 58, 59, 60, 61, 62, 63, 64, 65, 66, 67, 68, 69, 70, 71, 72, 73, 74, 75, 76, 77, 78, 79, 80, 81, 82, 83, 84, 85, 86, 87, 88, 89, 90, 91, 92, 93, 94, 95, 96, 97, 98, 99, 100, 101, 102, 103, 104, 105, 106, 107, 108, 109, 110, 111, 112, 113, 114, 115, 116, 117, 118, 119, 120, 121, 122, 123, 124, 125, 126, 127, 128, 129, 130, 131, 132, 133, 134, 135, 136, 137, 138, 139, 140, 141, 142, 143, 144, 145, 146, 147, 148, 149, 150, 151, 152, 153, 154, 155, 156, 157, 158, 159, 160, 161, 162, 163, 164, 165, 166, 167, 168, 169, 170, 171, 172, 173, 174, 175, 176, 177, 178, 179, 180, 181, 182, 183, 184, 185, 186, 187, 188, 189, 190, 191, 192, 193, 194, 195, 196, 197, 198, 199, 200, 201, 202],
      "LargestImagePixelValue": [61374, 59137, 58212, 58225, 57532, 57243, 57020, 57341, 57057, 57786, 56806, 57296, 57118, 57435, 57192, 57087, 57488, 56719, 58431, 57683, 56900, 57932, 57764, 57603, 57111, 57457, 57699, 57400, 57486, 56858, 57263, 57089, 57168, 57407, 56927, 57196, 57223, 57985, 56779, 56861, 57017, 56891, 56858, 57074, 57288, 56753, 57085, 57845, 57604, 57422, 57079, 57678, 57253, 57436, 57208, 57057, 57495, 57396, 57350, 56991, 57066, 57320, 57542, 57006, 57136, 57161, 57022, 57037, 57262, 57360, 57780, 57563, 57313, 57373, 57424, 57196, 57277, 57155, 57566, 57181, 57552, 57576, 57571, 57885, 57960, 57440, 57931, 57546, 57615, 57369, 57801, 57074, 57105, 57430, 57529, 57262, 57045, 56761, 57395, 57054, 57086, 56994, 56930, 57609, 57449, 57576, 58490, 58476, 58448, 58486, 58082, 58244, 58237, 58057, 57630, 57470, 57888, 57886, 57990, 58035, 58122, 58339, 58334, 57946, 58158, 57395, 56799, 58370, 57702, 57791, 57399, 57277, 57508, 58034, 58023, 58119, 57561, 56288, 57637, 58239, 58954, 58616, 58427, 59058, 58134, 58185, 58166, 57403, 57406, 57732, 58340, 57186, 58245, 58016, 57897, 57101, 57266, 57339, 57887, 58022, 57856, 58249, 58476, 58129, 58057, 58081, 58029, 55860, 55341, 56196, 55823, 56458, 57949, 57401, 57427, 57665, 57278, 56066, 57860, 57696, 57194, 57289, 58430, 57468, 57504, 57419, 57298, 57394, 57240, 57310, 56641, 56137, 57194, 57613, 57567, 55366, 58694, 57984, 58472, 58382, 58228, 58152],
      "WindowCenter": [10619.0, 10564.0, 10528.0, 10522.0, 10548.0, 10576.0, 10583.0, 10584.0, 10568.0, 10584.0, 10565.0, 10563.0, 10549.0, 10543.0, 10543.0, 10544.0, 10556.0, 10551.0, 10589.0, 10565.0, 10569.0, 10587.0, 10575.0, 10577.0, 10557.0, 10559.0, 10558.0, 10552.0, 10557.0, 10547.0, 10547.0, 10548.0, 10545.0, 10550.0, 10547.0, 10545.0, 10549.0, 10570.0, 10579.0, 10592.0, 10585.0, 10568.0, 10554.0, 10547.0, 10549.0, 10556.0, 10562.0, 10587.0, 10580.0, 10566.0, 10549.0, 10547.0, 10540.0, 10554.0, 10563.0, 10568.0, 10581.0, 10575.0, 10575.0, 10566.0, 10567.0, 10567.0, 10581.0, 10584.0, 10588.0, 10590.0, 10587.0, 10590.0, 10600.0, 10608.0, 10597.0, 10598.0, 10591.0, 10591.0, 10582.0, 10569.0, 10566.0, 10565.0, 10578.0, 10575.0, 10566.0, 10560.0, 10556.0, 10560.0, 10568.0, 10572.0, 10584.0, 10571.0, 10571.0, 10570.0, 10591.0, 10590.0, 10582.0, 10581.0, 10579.0, 10572.0, 10605.0, 10612.0, 10578.0, 10548.0, 10533.0, 10525.0, 10522.0, 10529.0, 10530.0, 10521.0, 10525.0, 10524.0, 10524.0, 10531.0, 10537.0, 10549.0, 10570.0, 10583.0, 10592.0, 10571.0, 10570.0, 10569.0, 10572.0, 10575.0, 10586.0, 10601.0, 10598.0, 10604.0, 10598.0, 10589.0, 10593.0, 10619.0, 10594.0, 10579.0, 10559.0, 10555.0, 10539.0, 10541.0, 10551.0, 10549.0, 10537.0, 10520.0, 10533.0, 10543.0, 10552.0, 10549.0, 10549.0, 10557.0, 10537.0, 10542.0, 10532.0, 10537.0, 10551.0, 10569.0, 10592.0, 10602.0, 10594.0, 10561.0, 10559.0, 10534.0, 10544.0, 10544.0, 10559.0, 10550.0, 10541.0, 10530.0, 10530.0, 10537.0, 10539.0, 10551.0, 10572.0, 10565.0, 10535.0, 10509.0, 10470.0, 10457.0, 10469.0, 10481.0, 10519.0, 10538.0, 10520.0, 10488.0, 10479.0, 10468.0, 10460.0, 10466.0, 10482.0, 10505.0, 10532.0, 10537.0, 10537.0, 10537.0, 10530.0, 10526.0, 10529.0, 10524.0, 10527.0, 10532.0, 10550.0, 10544.0, 10564.0, 10561.0, 10588.0, 10583.0, 10574.0, 10563.0],
      "WindowWidth": [23083.0, 22915.0, 22807.0, 22774.0, 22826.0, 22886.0, 22902.0, 22904.0, 22867.0, 22897.0, 22858.0, 22851.0, 22819.0, 22804.0, 22803.0, 22806.0, 22830.0, 22830.0, 22915.0, 22853.0, 22858.0, 22902.0, 22876.0, 22878.0, 22836.0, 22837.0, 22836.0, 22824.0, 22836.0, 22815.0, 22814.0, 22838.0, 22811.0, 22821.0, 22814.0, 22809.0, 22833.0, 22863.0, 22887.0, 22919.0, 22906.0, 22866.0, 22831.0, 22816.0, 22817.0, 22839.0, 22853.0, 22909.0, 22893.0, 22863.0, 22825.0, 22817.0, 22802.0, 22833.0, 22856.0, 22869.0, 22896.0, 22887.0, 22883.0, 22864.0, 22865.0, 22867.0, 22899.0, 22906.0, 22914.0, 22919.0, 22914.0, 22920.0, 22941.0, 22961.0, 22933.0, 22936.0, 22922.0, 22921.0, 22899.0, 22872.0, 22863.0, 22861.0, 22888.0, 22884.0, 22863.0, 22850.0, 22837.0, 22846.0, 22863.0, 22876.0, 22899.0, 22873.0, 22872.0, 22869.0, 22913.0, 22917.0, 22896.0, 22892.0, 22888.0, 22874.0, 22952.0, 22977.0, 22893.0, 22823.0, 22784.0, 22765.0, 22756.0, 22773.0, 22776.0, 22754.0, 22761.0, 22758.0, 22760.0, 22776.0, 22786.0, 22815.0, 22860.0, 22895.0, 22932.0, 22866.0, 22864.0, 22860.0, 22877.0, 22873.0, 22898.0, 22936.0, 22928.0, 22946.0, 22930.0, 22909.0, 22922.0, 22985.0, 22922.0, 22885.0, 22844.0, 22860.0, 22798.0, 22800.0, 22825.0, 22818.0, 22795.0, 22759.0, 22784.0, 22799.0, 22814.0, 22810.0, 22812.0, 22832.0, 22798.0, 22807.0, 22784.0, 22803.0, 22825.0, 22866.0, 22928.0, 22955.0, 22921.0, 22845.0, 22833.0, 22779.0, 22804.0, 22805.0, 22842.0, 22820.0, 22798.0, 22771.0, 22772.0, 22786.0, 22794.0, 22819.0, 22875.0, 22866.0, 22801.0, 22736.0, 22649.0, 22612.0, 22630.0, 22657.0, 22744.0, 22794.0, 22747.0, 22684.0, 22663.0, 22636.0, 22625.0, 22640.0, 22662.0, 22720.0, 22794.0, 22803.0, 22800.0, 22810.0, 22788.0, 22773.0, 22785.0, 22778.0, 22778.0, 22782.0, 22831.0, 22826.0, 22851.0, 22856.0, 22911.0, 22901.0, 22872.0, 22844.0]
    },
    "slices": {}
  }
}