{
  "AcquisitionMatrixPE": 104,
  "AcquisitionNumber": 1,
  "AcquisitionTime": "18:35:11.155000",
  "BandwidthPerPixelPhaseEncode": 17.17,
  "BaseResolution": 104,
  "BodyPartExamined": "BRAIN",
  "CoilCombinationMethod": "Sum of Squares",
  "ConsistencyInfo": "N4_VE11C_LATEST_20160120",
  "ConversionSoftware": "dcm2niix",
  "ConversionSoftwareVersion": "v1.0.20230411",
  "DerivedVendorReportedEchoSpacing": 0.000560011,
  "DeviceSerialNumber": "167006",
  "DwellTime": 2.1e-06,
  "EchoTime": 0.037,
  "EchoTime1": 0.037,
  "EchoTime2": 0.001,
  "EchoTrainLength": 104,
  "EffectiveEchoSpacing": 0.000560011,
  "FlipAngle": 52,
  "HeudiconvVersion": "0.5.3.post861+ge7d3c7f",
  "ImageComments": "Unaliased MB4/PE3/LB",
  "ImageOrientationPatientDICOM": [0.999689, -0.0212623, 0.0130153, 0.0246064, 0.925366, -0.378276],
  "ImageOrientationText": "Tra>Cor(-22.2)>Sag(0.2)",
  "ImageType": [
    "ORIGINAL",
    "PRIMARY",
    "P",
    "MB",
    "ND",
    "MOSAIC",
    "PHASE"
],
  "ImagingFrequency": 123.249573,
  "InPlanePhaseEncodingDirectionDICOM": "COL",
  "InstitutionAddress": "Chemin Queen-Mary 4565,Montreal,District,CA,H3W 1W5",
  "InstitutionName": "IUGM",
  "InstitutionalDepartmentName": "Department",
  "MRAcquisitionType": "2D",
  "MagneticFieldStrength": 3,
  "Manufacturer": "Siemens",
  "ManufacturersModelName": "Prisma_fit",
  "MatrixCoilMode": "SENSE",
  "Modality": "MR",
  "MultibandAccelerationFactor": 4,
  "NonlinearGradientCorrection": false,
  "PartialFourier": 1,
  "PatientPosition": "HFS",
  "PercentPhaseFOV": 100,
  "PercentSampling": 100,
  "PhaseEncodingDirection": "j",
  "PhaseEncodingSteps": 104,
  "PhaseResolution": 1,
  "PixelBandwidth": 2290,
  "ProcedureStepDescription": "localizers^retinotopy",
  "ProtocolName": "func_task-rings",
  "PulseSequenceDetails": "%CustomerSeq%\\cmrr_mbep2d_bold",
  "ReceiveCoilActiveElements": "HC1-7;NC1,2",
  "ReceiveCoilName": "HeadNeck_64",
  "ReconMatrixPE": 104,
  "RepetitionTime": 1.49,
  "SAR": 0.0580041,
  "ScanOptions": "FS",
  "ScanningSequence": "EP",
  "SequenceName": "epfid2d1_104",
  "SequenceVariant": "SK\\SS",
  "SeriesDescription": "func_task-rings",
  "SeriesNumber": 17,
  "ShimSetting": [582, -7267, -8816, 388, 6, -298, -7, 103],
  "SliceThickness": 2,
  "SliceTiming": [0, 0.7825, 0.0975, 0.88, 0.195, 0.98, 0.2925, 1.0775, 0.3925, 1.175, 0.49, 1.2725, 0.5875, 1.37, 0.685, 0, 0.7825, 0.0975, 0.88, 0.195, 0.98, 0.2925, 1.0775, 0.3925, 1.175, 0.49, 1.2725, 0.5875, 1.37, 0.685, 0, 0.7825, 0.0975, 0.88, 0.195, 0.98, 0.2925, 1.0775, 0.3925, 1.175, 0.49, 1.2725, 0.5875, 1.37, 0.685, 0, 0.7825, 0.0975, 0.88, 0.195, 0.98, 0.2925, 1.0775, 0.3925, 1.175, 0.49, 1.2725, 0.5875, 1.37, 0.685],
  "SoftwareVersions": "syngo MR E11",
  "SpacingBetweenSlices": 2,
  "StationName": "MRC35049",
  "TaskName": "rings",
  "TotalReadoutTime": 0.0576811,
  "TxRefAmp": 269.345,
  "WipMemBlock": "ea18a041-14f9-48eb-bcfb-99c345337908||Sequence: R017 ve11c/master r/75a17815+; Jun 28 2022 16:32:11 by eja",
  "dcmmeta_affine": [
    [-1.9993784427642822, 0.04921288043260574, 0.008001720532774925, 102.10659790039062],
    [0.04252465441823006, 1.8507317304611206, -0.7569568753242493, -62.61049270629883],
    [0.026030534878373146, 0.7565515041351318, 1.8512028455734253, -65.84452819824219],
    [0.0, 0.0, 0.0, 1.0]
],
  "dcmmeta_reorient_transform": [
    [0.0, -1.0, 0.0, 103.0],
    [1.0, 0.0, 0.0, 0.0],
    [0.0, 0.0, 1.0, 0.0],
    [0.0, 0.0, 0.0, 1.0]
],
  "dcmmeta_shape": [104, 104, 60, 202],
  "dcmmeta_slice_dim": 2,
  "dcmmeta_version": 0.6,
  "global": {
    "const": {
      "AcquisitionMatrix": [104, 0, 0, 104],
      "AngioFlag": "N",
      "BitsAllocated": 16,
      "BitsStored": 16,
      "BodyPartExamined": "BRAIN",
      "Columns": 832,
      "EchoNumbers": 1,
      "EchoTime": 37.0,
      "EchoTrainLength": 104,
      "FlipAngle": 52.0,
      "HighBit": 15,
      "ImageOrientationPatient": [0.99968920983458, -0.0212623273769, 0.01301526699053, 0.0246064392933, 0.92536585786796, -0.3782757621598],
      "ImagePositionPatient": [-852.86275958584, -786.20224314248, 277.989919313],
      "ImageType": [
        "ORIGINAL",
        "PRIMARY",
        "P",
        "MB",
        "ND",
        "MOSAIC"
],
      "ImagedNucleus": "1H",
      "ImagingFrequency": 123.249573,
      "InPlanePhaseEncodingDirection": "COL",
      "LargestImagePixelValue": 4095,
      "MRAcquisitionType": "2D",
      "MagneticFieldStrength": 3.0,
      "Manufacturer": "SIEMENS",
      "ManufacturerModelName": "Prisma_fit",
      "Modality": "MR",
      "NumberOfAverages": 1.0,
      "NumberOfPhaseEncodingSteps": 104,
      "PercentPhaseFieldOfView": 100.0,
      "PercentSampling": 100.0,
      "PerformedProcedureStepStartTime": "182254.279000",
      "PhotometricInterpretation": "MONOCHROME2",
      "PixelBandwidth": 2290.0,
      "PixelRepresentation": 0,
      "PixelSpacing": [2.0, 2.0],
      "ProtocolName": "func_task-rings",
      "RepetitionTime": 1490.0,
      "RescaleIntercept": -4096.0,
      "RescaleSlope": 2.0,
      "RescaleType": "US",
      "Rows": 832,
      "SAR": 0.05800406431685,
      "SamplesPerPixel": 1,
      "ScanOptions": "FS",
      "ScanningSequence": "EP",
      "SequenceName": "epfid2d1_104",
      "SequenceVariant": [
        "SK",
        "SS"
],
      "SeriesDescription": "func_task-rings",
      "SeriesNumber": 17,
      "SeriesTime": "183642.488000",
      "SliceLocation": -36.840553617421,
      "SliceThickness": 2.0,
      "SmallestImagePixelValue": 0,
      "SoftwareVersions": "syngo MR E11",
      "SpacingBetweenSlices": 1.9999999406212,
      "SpecificCharacterSet": "ISO_IR 100",
      "StudyID": "1",
      "StudyTime": "182254.194000",
      "TransmitCoilName": "Body",
      "VariableFlipAngleFlag": "N",
      "WindowCenterWidthExplanation": "Algo1",
      "dBdt": 0.0},
    "slices": {}
  },
  "time": {
    "samples": {
      "AcquisitionNumber": [1, 2, 3, 4, 5, 6, 7, 8, 9, 10, 11, 12, 13, 14, 15, 16, 17, 18, 19, 20, 21, 22, 23, 24, 25, 26, 27, 28, 29, 30, 31, 32, 33, 34, 35, 36, 37, 38, 39, 40, 41, 42, 43, 44, 45, 46, 47, 48, 49, 50, 51, 52, 53, 54, 55, 56, 57, 58, 59, 60, 61, 62, 63, 64, 65, 66, 67, 68, 69, 70, 71, 72, 73, 74, 75, 76, 77, 78, 79, 80, 81, 82, 83, 84, 85, 86, 87, 88, 89, 90, 91, 92, 93, 94, 95, 96, 97, 98, 99, 100, 101, 102, 103, 104, 105, 106, 107, 108, 109, 110, 111, 112, 113, 114, 115, 116, 117, 118, 119, 120, 121, 122, 123, 124, 125, 126, 127, 128, 129, 130, 131, 132, 133, 134, 135, 136, 137, 138, 139, 140, 141, 142, 143, 144, 145, 146, 147, 148, 149, 150, 151, 152, 153, 154, 155, 156, 157, 158, 159, 160, 161, 162, 163, 164, 165, 166, 167, 168, 169, 170, 171, 172, 173, 174, 175, 176, 177, 178, 179, 180, 181, 182, 183, 184, 185, 186, 187, 188, 189, 190, 191, 192, 193, 194, 195, 196, 197, 198, 199, 200, 201, 202],
      "AcquisitionTime": ["183511.155000", "183512.645000", "183514.135000", "183515.625000", "183517.115000", "183518.605000", "183520.095000", "183521.585000", "183523.075000", "183524.565000", "183526.055000", "183527.545000", "183529.035000", "183530.525000", "183532.015000", "183533.505000", "183534.995000", "183536.485000", "183537.975000", "183539.465000", "183540.955000", "183542.445000", "183543.935000", "183545.425000", "183546.915000", "183548.405000", "183549.895000", "183551.385000", "183552.875000", "183554.365000", "183555.855000", "183557.345000", "183558.835000", "183600.325000", "183601.815000", "183603.305000", "183604.795000", "183606.285000", "183607.775000", "183609.265000", "183610.755000", "183612.245000", "183613.735000", "183615.225000", "183616.715000", "183618.205000", "183619.695000", "183621.185000", "183622.675000", "183624.165000", "183625.655000", "183627.145000", "183628.635000", "183630.125000", "183631.615000", "183633.105000", "183634.595000", "183636.085000", "183637.575000", "183639.065000", "183640.555000", "183642.045000", "183643.535000", "183645.025000", "183646.515000", "183648.005000", "183649.495000", "183650.985000", "183652.475000", "183653.965000", "183655.455000", "183656.945000", "183658.435000", "183659.925000", "183701.415000", "183702.905000", "183704.395000", "183705.885000", "183707.375000", "183708.865000", "183710.355000", "183711.845000", "183713.335000", "183714.825000", "183716.315000", "183717.805000", "183719.295000", "183720.785000", "183722.275000", "183723.765000", "183725.255000", "183726.745000", "183728.235000", "183729.725000", "183731.215000", "183732.705000", "183734.195000", "183735.685000", "183737.175000", "183738.665000", "183740.155000", "183741.645000", "183743.135000", "183744.625000", "183746.115000", "183747.605000", "183749.095000", "183750.585000", "183752.075000", "183753.565000", "183755.055000", "183756.545000", "183758.035000", "183759.525000", "183801.015000", "183802.505000", "183803.995000", "183805.485000", "183806.975000", "183808.465000", "183809.955000", "183811.445000", "183812.935000", "183814.425000", "183815.915000", "183817.405000", "183818.895000", "183820.385000", "183821.875000", "183823.365000", "183824.855000", "183826.345000", "183827.835000", "183829.325000", "183830.815000", "183832.305000", "183833.795000", "183835.285000", "183836.775000", "183838.265000", "183839.755000", "183841.245000", "183842.735000", "183844.225000", "183845.715000", "183847.205000", "183848.695000", "183850.185000", "183851.675000", "183853.165000", "183854.655000", "183856.145000", "183857.635000", "183859.125000", "183900.615000", "183902.105000", "183903.595000", "183905.085000", "183906.575000", "183908.065000", "183909.555000", "183911.045000", "183912.535000", "183914.025000", "183915.515000", "183917.005000", "183918.495000", "183919.985000", "183921.475000", "183922.965000", "183924.455000", "183925.945000", "183927.435000", "183928.925000", "183930.415000", "183931.905000", "183933.395000", "183934.885000", "183936.375000", "183937.865000", "183939.355000", "183940.845000", "183942.335000", "183943.825000", "183945.315000", "183946.805000", "183948.295000", "183949.785000", "183951.275000", "183952.765000", "183954.255000", "183955.745000", "183957.235000", "183958.725000", "184000.215000", "184001.705000", "184003.195000", "184004.685000", "184006.175000", "184007.665000", "184009.155000", "184010.645000"],
      "ContentTime": ["183642.490000", "183642.493000", "183642.496000", "183642.498000", "183642.501000", "183642.503000", "183642.506000", "183642.508000", "183642.511000", "183642.514000", "183642.516000", "183642.519000", "183642.521000", "183642.524000", "183642.526000", "183642.529000", "183642.531000", "183642.534000", "183642.537000", "183642.539000", "183642.542000", "183642.544000", "183642.547000", "183642.550000", "183642.552000", "183642.555000", "183642.557000", "183642.560000", "183642.562000", "183642.565000", "183642.568000", "183642.572000", "183702.754000", "183702.757000", "183702.760000", "183702.762000", "183702.765000", "183702.768000", "183702.770000", "183702.773000", "183702.775000", "183702.778000", "183702.781000", "183702.783000", "183702.786000", "183702.788000", "183702.791000", "183702.794000", "183702.796000", "183702.799000", "183702.801000", "183702.804000", "183722.409000", "183722.412000", "183722.415000", "183722.417000", "183722.420000", "183722.423000", "183722.425000", "183722.428000", "183722.431000", "183722.433000", "183722.436000", "183722.438000", "183722.441000", "183722.444000", "183722.446000", "183722.449000", "183722.451000", "183722.454000", "183722.457000", "183722.459000", "183742.402000", "183742.405000", "183742.407000", "183742.410000", "183742.413000", "183742.415000", "183742.418000", "183742.420000", "183742.423000", "183742.426000", "183742.428000", "183742.431000", "183742.434000", "183742.436000", "183742.439000", "183742.441000", "183742.444000", "183742.447000", "183742.449000", "183742.452000", "183822.436000", "183822.439000", "183822.442000", "183822.445000", "183822.447000", "183822.456000", "183822.459000", "183822.461000", "183822.464000", "183822.467000", "183822.469000", "183822.472000", "183822.475000", "183822.477000", "183822.480000", "183822.483000", "183822.485000", "183822.488000", "183822.491000", "183822.493000", "183822.496000", "183822.498000", "183822.501000", "183822.504000", "183822.506000", "183822.509000", "183822.512000", "183822.514000", "183822.517000", "183902.430000", "183902.433000", "183902.436000", "183902.438000", "183902.441000", "183902.443000", "183902.446000", "183902.449000", "183902.451000", "183902.454000", "183902.457000", "183902.461000", "183902.464000", "183902.467000", "183902.470000", "183902.473000", "183902.476000", "183902.479000", "183902.481000", "183902.484000", "183902.487000", "183902.489000", "183902.492000", "183902.495000", "183902.497000", "183902.500000", "183942.436000", "183942.439000", "183942.441000", "183942.444000", "183942.447000", "183942.449000", "183942.452000", "183942.455000", "183942.457000", "183942.460000", "183942.462000", "183942.465000", "183942.468000", "183942.470000", "183942.473000", "183942.476000", "183942.478000", "183942.481000", "183942.484000", "183942.486000", "183942.489000", "183942.492000", "183942.495000", "183942.498000", "183942.500000", "183942.503000", "183942.506000", "184022.423000", "184022.425000", "184022.428000", "184022.431000", "184022.433000", "184022.436000", "184022.439000", "184022.441000", "184022.444000", "184022.446000", "184022.449000", "184022.452000", "184022.455000", "184022.457000", "184022.460000", "184022.462000", "184022.465000", "184022.468000", "184022.470000", "184022.473000", "184022.476000", "184022.478000", "184022.481000", "184022.486000", "184022.488000", "184022.491000", "184022.493000", "184023.007000"],
      "InstanceCreationTime": ["183642.490000", "183642.493000", "183642.496000", "183642.498000", "183642.501000", "183642.503000", "183642.506000", "183642.508000", "183642.511000", "183642.514000", "183642.516000", "183642.519000", "183642.521000", "183642.524000", "183642.526000", "183642.529000", "183642.531000", "183642.534000", "183642.537000", "183642.539000", "183642.542000", "183642.544000", "183642.547000", "183642.550000", "183642.552000", "183642.555000", "183642.557000", "183642.560000", "183642.562000", "183642.565000", "183642.568000", "183642.572000", "183702.754000", "183702.757000", "183702.760000", "183702.762000", "183702.765000", "183702.768000", "183702.770000", "183702.773000", "183702.775000", "183702.778000", "183702.781000", "183702.783000", "183702.786000", "183702.788000", "183702.791000", "183702.794000", "183702.796000", "183702.799000", "183702.801000", "183702.804000", "183722.409000", "183722.412000", "183722.415000", "183722.417000", "183722.420000", "183722.423000", "183722.425000", "183722.428000", "183722.431000", "183722.433000", "183722.436000", "183722.438000", "183722.441000", "183722.444000", "183722.446000", "183722.449000", "183722.451000", "183722.454000", "183722.457000", "183722.459000", "183742.402000", "183742.405000", "183742.407000", "183742.410000", "183742.413000", "183742.415000", "183742.418000", "183742.420000", "183742.423000", "183742.426000", "183742.428000", "183742.431000", "183742.434000", "183742.436000", "183742.439000", "183742.441000", "183742.444000", "183742.447000", "183742.449000", "183742.452000", "183822.436000", "183822.439000", "183822.442000", "183822.445000", "183822.447000", "183822.456000", "183822.459000", "183822.461000", "183822.464000", "183822.467000", "183822.469000", "183822.472000", "183822.475000", "183822.477000", "183822.480000", "183822.483000", "183822.485000", "183822.488000", "183822.491000", "183822.493000", "183822.496000", "183822.498000", "183822.501000", "183822.504000", "183822.506000", "183822.509000", "183822.512000", "183822.514000", "183822.517000", "183902.430000", "183902.433000", "183902.436000", "183902.438000", "183902.441000", "183902.443000", "183902.446000", "183902.449000", "183902.451000", "183902.454000", "183902.457000", "183902.461000", "183902.464000", "183902.467000", "183902.470000", "183902.473000", "183902.476000", "183902.479000", "183902.481000", "183902.484000", "183902.487000", "183902.489000", "183902.492000", "183902.495000", "183902.497000", "183902.500000", "183942.436000", "183942.439000", "183942.441000", "183942.444000", "183942.447000", "183942.449000", "183942.452000", "183942.455000", "183942.457000", "183942.460000", "183942.462000", "183942.465000", "183942.468000", "183942.470000", "183942.473000", "183942.476000", "183942.478000", "183942.481000", "183942.484000", "183942.486000", "183942.489000", "183942.492000", "183942.495000", "183942.498000", "183942.500000", "183942.503000", "183942.506000", "184022.423000", "184022.425000", "184022.428000", "184022.431000", "184022.433000", "184022.436000", "184022.439000", "184022.441000", "184022.444000", "184022.446000", "184022.449000", "184022.452000", "184022.455000", "184022.457000", "184022.460000", "184022.462000", "184022.465000", "184022.468000", "184022.470000", "184022.473000", "184022.476000", "184022.478000", "184022.481000", "184022.486000", "184022.488000", "184022.491000", "184022.493000", "184023.007000"],
      "InstanceNumber": [1, 2, 3, 4, 5, 6, 7, 8, 9, 10, 11, 12, 13, 14, 15, 16, 17, 18, 19, 20, 21, 22, 23, 24, 25, 26, 27, 28, 29, 30, 31, 32, 33, 34, 35, 36, 37, 38, 39, 40, 41, 42, 43, 44, 45, 46, 47, 48, 49, 50, 51, 52, 53, 54, 55, 56, 57, 58, 59, 60, 61, 62, 63, 64, 65, 66, 67, 68, 69, 70, 71, 72, 73, 74, 75, 76, 77, 78, 79, 80, 81, 82, 83, 84, 85, 86, 87, 88, 89, 90, 91, 92, 93, 94, 95, 96, 97, 98, 99, 100, 101, 102, 103, 104, 105, 106, 107, 108, 109, 110, 111, 112, 113, 114, 115, 116, 117, 118, 119, 120, 121, 122, 123, 124, 125, 126, 127, 128, 129, 130, 131, 132, 133, 134, 135, 136, 137, 138, 139, 140, 141, 142, 143, 144, 145, 146, 147, 148, 149, 150, 151, 152, 153, 154, 155, 156, 157, 158, 159, 160, 161, 162, 163, 164, 165, 166, 167, 168, 169, 170, 171, 172, 173, 174, 175, 176, 177, 178, 179, 180, 181, 182, 183, 184, 185, 186, 187, 188, 189, 190, 191, 192, 193, 194, 195, 196, 197, 198, 199, 200, 201, 202],
      "WindowCenter": [4928.0, 4918.0, 4922.0, 4924.0, 4924.0, 4926.0, 4928.0, 4928.0, 4926.0, 4922.0, 4930.0, 4928.0, 4926.0, 4926.0, 4922.0, 4902.0, 4922.0, 4922.0, 4920.0, 4924.0, 4928.0, 4904.0, 4924.0, 4920.0, 4926.0, 4922.0, 4926.0, 4926.0, 4926.0, 4926.0, 4922.0, 4924.0, 4922.0, 4920.0, 4924.0, 4924.0, 4922.0, 4888.0, 4922.0, 4922.0, 4902.0, 4926.0, 4928.0, 4926.0, 4926.0, 4920.0, 4900.0, 4924.0, 4924.0, 4928.0, 4924.0, 4930.0, 4924.0, 4926.0, 4922.0, 4924.0, 4924.0, 4926.0, 4920.0, 4924.0, 4924.0, 4922.0, 4924.0, 4926.0, 4922.0, 4926.0, 4924.0, 4902.0, 4926.0, 4924.0, 4924.0, 4920.0, 4924.0, 4924.0, 4928.0, 4926.0, 4928.0, 4924.0, 4926.0, 4924.0, 4922.0, 4924.0, 4922.0, 4918.0, 4922.0, 4926.0, 4924.0, 4924.0, 4926.0, 4926.0, 4926.0, 4924.0, 4926.0, 4924.0, 4924.0, 4916.0, 4816.0, 4890.0, 4924.0, 4906.0, 4908.0, 4908.0, 4932.0, 4928.0, 4896.0, 4894.0, 4890.0, 4894.0, 4920.0, 4922.0, 4930.0, 4928.0, 4902.0, 4928.0, 4924.0, 4922.0, 4898.0, 4894.0, 4920.0, 4920.0, 4926.0, 4894.0, 4926.0, 4924.0, 4924.0, 4924.0, 4904.0, 4930.0, 4924.0, 4926.0, 4920.0, 4922.0, 4920.0, 4920.0, 4922.0, 4924.0, 4928.0, 4926.0, 4926.0, 4924.0, 4894.0, 4922.0, 4894.0, 4918.0, 4926.0, 4922.0, 4926.0, 4922.0, 4924.0, 4924.0, 4920.0, 4902.0, 4926.0, 4922.0, 4894.0, 4884.0, 4890.0, 4920.0, 4924.0, 4928.0, 4906.0, 4926.0, 4926.0, 4898.0, 4916.0, 4848.0, 4786.0, 4854.0, 4922.0, 4926.0, 4904.0, 4930.0, 4904.0, 4906.0, 4920.0, 4890.0, 4880.0, 4852.0, 4880.0, 4888.0, 4920.0, 4926.0, 4928.0, 4926.0, 4926.0, 4920.0, 4920.0, 4920.0, 4922.0, 4894.0, 4896.0, 4920.0, 4920.0, 4886.0, 4890.0, 4892.0, 4894.0, 4906.0, 4930.0, 4928.0, 4924.0, 4924.0],
      "WindowWidth": [18768.0, 18772.0, 18764.0, 18770.0, 18760.0, 18766.0, 18756.0, 18756.0, 18764.0, 18770.0, 18764.0, 18768.0, 18762.0, 18766.0, 18762.0, 18734.0, 18770.0, 18766.0, 18770.0, 18762.0, 18760.0, 18730.0, 18766.0, 18772.0, 18760.0, 18762.0, 18762.0, 18764.0, 18764.0, 18768.0, 18766.0, 18766.0, 18768.0, 18766.0, 18764.0, 18760.0, 18764.0, 18738.0, 18768.0, 18770.0, 18730.0, 18764.0, 18762.0, 18764.0, 18770.0, 18770.0, 18734.0, 18768.0, 18764.0, 18766.0, 18768.0, 18768.0, 18764.0, 18768.0, 18768.0, 18766.0, 18770.0, 18766.0, 18768.0, 18770.0, 18768.0, 18770.0, 18770.0, 18766.0, 18766.0, 18764.0, 18768.0, 18734.0, 18768.0, 18770.0, 18770.0, 18768.0, 18764.0, 18770.0, 18766.0, 18764.0, 18764.0, 18766.0, 18768.0, 18766.0, 18764.0, 18764.0, 18770.0, 18768.0, 18770.0, 18764.0, 18772.0, 18770.0, 18766.0, 18766.0, 18768.0, 18768.0, 18770.0, 18766.0, 18772.0, 18778.0, 18664.0, 18748.0, 18752.0, 18714.0, 18704.0, 18706.0, 18760.0, 18768.0, 18740.0, 18738.0, 18740.0, 18738.0, 18774.0, 18764.0, 18768.0, 18756.0, 18732.0, 18760.0, 18766.0, 18770.0, 18740.0, 18740.0, 18770.0, 18774.0, 18774.0, 18734.0, 18770.0, 18768.0, 18758.0, 18776.0, 18732.0, 18770.0, 18768.0, 18770.0, 18772.0, 18766.0, 18766.0, 18768.0, 18768.0, 18764.0, 18770.0, 18770.0, 18768.0, 18768.0, 18736.0, 18770.0, 18742.0, 18768.0, 18770.0, 18768.0, 18762.0, 18764.0, 18766.0, 18774.0, 18774.0, 18738.0, 18764.0, 18778.0, 18740.0, 18744.0, 18746.0, 18770.0, 18766.0, 18754.0, 18728.0, 18760.0, 18762.0, 18738.0, 18768.0, 18702.0, 18618.0, 18712.0, 18778.0, 18758.0, 18712.0, 18742.0, 18710.0, 18728.0, 18770.0, 18742.0, 18736.0, 18702.0, 18738.0, 18740.0, 18766.0, 18760.0, 18766.0, 18766.0, 18764.0, 18774.0, 18770.0, 18768.0, 18772.0, 18738.0, 18742.0, 18770.0, 18768.0, 18742.0, 18742.0, 18742.0, 18740.0, 18726.0, 18758.0, 18756.0, 18768.0, 18774.0]
    },
    "slices": {}
  }
}