{
  "AcquisitionMatrixPE": 104,
  "AcquisitionNumber": 1,
  "AcquisitionTime": "18:41:25.495000",
  "BandwidthPerPixelPhaseEncode": 17.17,
  "BaseResolution": 104,
  "BodyPartExamined": "BRAIN",
  "CoilCombinationMethod": "Sum of Squares",
  "ConsistencyInfo": "N4_VE11C_LATEST_20160120",
  "ConversionSoftware": "dcm2niix",
  "ConversionSoftwareVersion": "v1.0.20230411",
  "DerivedVendorReportedEchoSpacing": 0.000560011,
  "DeviceSerialNumber": "167006",
  "DwellTime": 2.1e-06,
  "EchoTime": 0.037,
  "EchoTrainLength": 104,
  "EffectiveEchoSpacing": 0.000560011,
  "FlipAngle": 52,
  "HeudiconvVersion": "0.5.3.post861+ge7d3c7f",
  "ImageComments": "Unaliased MB4/PE3/LB",
  "ImageOrientationPatientDICOM": [0.999689, -0.0212623, 0.0130153, 0.0246064, 0.925366, -0.378276],
  "ImageOrientationText": "Tra>Cor(-22.2)>Sag(0.2)",
  "ImageType": [
    "ORIGINAL",
    "PRIMARY",
    "M",
    "MB",
    "ND",
    "MOSAIC"
],
  "ImagingFrequency": 123.249574,
  "InPlanePhaseEncodingDirectionDICOM": "COL",
  "InstitutionAddress": "Chemin Queen-Mary 4565,Montreal,District,CA,H3W 1W5",
  "InstitutionName": "IUGM",
  "InstitutionalDepartmentName": "Department",
  "MRAcquisitionType": "2D",
  "MagneticFieldStrength": 3,
  "Manufacturer": "Siemens",
  "ManufacturersModelName": "Prisma_fit",
  "MatrixCoilMode": "SENSE",
  "Modality": "MR",
  "MultibandAccelerationFactor": 4,
  "NonlinearGradientCorrection": false,
  "PartialFourier": 1,
  "PatientPosition": "HFS",
  "PercentPhaseFOV": 100,
  "PercentSampling": 100,
  "PhaseEncodingDirection": "j",
  "PhaseEncodingSteps": 104,
  "PhaseResolution": 1,
  "PixelBandwidth": 2290,
  "ProcedureStepDescription": "localizers^retinotopy",
  "ProtocolName": "func_task-bars",
  "PulseSequenceDetails": "%CustomerSeq%\\cmrr_mbep2d_bold",
  "ReceiveCoilActiveElements": "HC1-7;NC1,2",
  "ReceiveCoilName": "HeadNeck_64",
  "ReconMatrixPE": 104,
  "RepetitionTime": 1.49,
  "SAR": 0.0580041,
  "ScanOptions": "FS",
  "ScanningSequence": "EP",
  "SequenceName": "epfid2d1_104",
  "SequenceVariant": "SK\\SS",
  "SeriesDescription": "func_task-bars",
  "SeriesNumber": 19,
  "ShimSetting": [582, -7267, -8816, 388, 6, -298, -7, 103],
  "SliceThickness": 2,
  "SliceTiming": [0, 0.785, 0.0975, 0.8825, 0.195, 0.98, 0.295, 1.0775, 0.3925, 1.175, 0.49, 1.2725, 0.5875, 1.3725, 0.685, 0, 0.785, 0.0975, 0.8825, 0.195, 0.98, 0.295, 1.0775, 0.3925, 1.175, 0.49, 1.2725, 0.5875, 1.3725, 0.685, 0, 0.785, 0.0975, 0.8825, 0.195, 0.98, 0.295, 1.0775, 0.3925, 1.175, 0.49, 1.2725, 0.5875, 1.3725, 0.685, 0, 0.785, 0.0975, 0.8825, 0.195, 0.98, 0.295, 1.0775, 0.3925, 1.175, 0.49, 1.2725, 0.5875, 1.3725, 0.685],
  "SoftwareVersions": "syngo MR E11",
  "SpacingBetweenSlices": 2,
  "StationName": "MRC35049",
  "TaskName": "bars",
  "TotalReadoutTime": 0.0576811,
  "TxRefAmp": 269.345,
  "WipMemBlock": "5d606c68-3246-4e1d-8c91-22a52a9d66e9||Sequence: R017 ve11c/master r/75a17815+; Jun 28 2022 16:32:11 by eja",
  "dcmmeta_affine": [
    [-1.9993784427642822, 0.04921288043260574, 0.008001720532774925, 102.10659790039062],
    [0.04252465441823006, 1.8507317304611206, -0.7569568753242493, -62.61049270629883],
    [0.026030534878373146, 0.7565515041351318, 1.8512028455734253, -65.84452819824219],
    [0.0, 0.0, 0.0, 1.0]
],
  "dcmmeta_reorient_transform": [
    [0.0, -1.0, 0.0, 103.0],
    [1.0, 0.0, 0.0, 0.0],
    [0.0, 0.0, 1.0, 0.0],
    [0.0, 0.0, 0.0, 1.0]
],
  "dcmmeta_shape": [104, 104, 60, 202],
  "dcmmeta_slice_dim": 2,
  "dcmmeta_version": 0.6,
  "global": {
    "const": {
      "AcquisitionMatrix": [104, 0, 0, 104],
      "AngioFlag": "N",
      "BitsAllocated": 16,
      "BitsStored": 16,
      "BodyPartExamined": "BRAIN",
      "Columns": 832,
      "EchoNumbers": 1,
      "EchoTime": 37.0,
      "EchoTrainLength": 104,
      "FlipAngle": 52.0,
      "HighBit": 15,
      "ImageOrientationPatient": [0.99968920983458, -0.0212623273769, 0.01301526699053, 0.0246064392933, 0.92536585786796, -0.3782757621598],
      "ImagePositionPatient": [-852.86275958584, -786.20224314248, 277.989919313],
      "ImageType": [
        "ORIGINAL",
        "PRIMARY",
        "M",
        "MB",
        "ND",
        "MOSAIC"
],
      "ImagedNucleus": "1H",
      "ImagingFrequency": 123.249574,
      "InPlanePhaseEncodingDirection": "COL",
      "MRAcquisitionType": "2D",
      "MagneticFieldStrength": 3.0,
      "Manufacturer": "SIEMENS",
      "ManufacturerModelName": "Prisma_fit",
      "Modality": "MR",
      "NumberOfAverages": 1.0,
      "NumberOfPhaseEncodingSteps": 104,
      "PercentPhaseFieldOfView": 100.0,
      "PercentSampling": 100.0,
      "PerformedProcedureStepStartTime": "182254.279000",
      "PhotometricInterpretation": "MONOCHROME2",
      "PixelBandwidth": 2290.0,
      "PixelRepresentation": 0,
      "PixelSpacing": [2.0, 2.0],
      "ProtocolName": "func_task-bars",
      "RepetitionTime": 1490.0,
      "Rows": 832,
      "SAR": 0.05800406431685,
      "SamplesPerPixel": 1,
      "ScanOptions": "FS",
      "ScanningSequence": "EP",
      "SequenceName": "epfid2d1_104",
      "SequenceVariant": [
        "SK",
        "SS"
],
      "SeriesDescription": "func_task-bars",
      "SeriesNumber": 19,
      "SeriesTime": "184232.699000",
      "SliceLocation": -36.840553617421,
      "SliceThickness": 2.0,
      "SmallestImagePixelValue": 0,
      "SoftwareVersions": "syngo MR E11",
      "SpacingBetweenSlices": 1.9999999406212,
      "SpecificCharacterSet": "ISO_IR 100",
      "StudyID": "1",
      "StudyTime": "182254.194000",
      "TransmitCoilName": "Body",
      "VariableFlipAngleFlag": "N",
      "WindowCenterWidthExplanation": "Algo1",
      "dBdt": 0.0},
    "slices": {}
  },
  "time": {
    "samples": {
      "AcquisitionNumber": [1, 2, 3, 4, 5, 6, 7, 8, 9, 10, 11, 12, 13, 14, 15, 16, 17, 18, 19, 20, 21, 22, 23, 24, 25, 26, 27, 28, 29, 30, 31, 32, 33, 34, 35, 36, 37, 38, 39, 40, 41, 42, 43, 44, 45, 46, 47, 48, 49, 50, 51, 52, 53, 54, 55, 56, 57, 58, 59, 60, 61, 62, 63, 64, 65, 66, 67, 68, 69, 70, 71, 72, 73, 74, 75, 76, 77, 78, 79, 80, 81, 82, 83, 84, 85, 86, 87, 88, 89, 90, 91, 92, 93, 94, 95, 96, 97, 98, 99, 100, 101, 102, 103, 104, 105, 106, 107, 108, 109, 110, 111, 112, 113, 114, 115, 116, 117, 118, 119, 120, 121, 122, 123, 124, 125, 126, 127, 128, 129, 130, 131, 132, 133, 134, 135, 136, 137, 138, 139, 140, 141, 142, 143, 144, 145, 146, 147, 148, 149, 150, 151, 152, 153, 154, 155, 156, 157, 158, 159, 160, 161, 162, 163, 164, 165, 166, 167, 168, 169, 170, 171, 172, 173, 174, 175, 176, 177, 178, 179, 180, 181, 182, 183, 184, 185, 186, 187, 188, 189, 190, 191, 192, 193, 194, 195, 196, 197, 198, 199, 200, 201, 202],
      "AcquisitionTime": ["184125.495000", "184126.985000", "184128.475000", "184129.965000", "184131.455000", "184132.945000", "184134.435000", "184135.925000", "184137.415000", "184138.905000", "184140.395000", "184141.885000", "184143.375000", "184144.865000", "184146.355000", "184147.845000", "184149.335000", "184150.825000", "184152.315000", "184153.805000", "184155.295000", "184156.785000", "184158.275000", "184159.765000", "184201.255000", "184202.745000", "184204.235000", "184205.725000", "184207.215000", "184208.705000", "184210.195000", "184211.685000", "184213.175000", "184214.665000", "184216.155000", "184217.645000", "184219.135000", "184220.625000", "184222.115000", "184223.605000", "184225.095000", "184226.585000", "184228.075000", "184229.565000", "184231.055000", "184232.545000", "184234.035000", "184235.525000", "184237.015000", "184238.505000", "184239.995000", "184241.485000", "184242.975000", "184244.465000", "184245.955000", "184247.445000", "184248.935000", "184250.425000", "184251.915000", "184253.405000", "184254.895000", "184256.385000", "184257.875000", "184259.365000", "184300.855000", "184302.345000", "184303.835000", "184305.325000", "184306.815000", "184308.305000", "184309.795000", "184311.285000", "184312.775000", "184314.265000", "184315.755000", "184317.245000", "184318.735000", "184320.225000", "184321.715000", "184323.205000", "184324.695000", "184326.185000", "184327.675000", "184329.165000", "184330.655000", "184332.145000", "184333.635000", "184335.125000", "184336.615000", "184338.105000", "184339.595000", "184341.085000", "184342.575000", "184344.065000", "184345.555000", "184347.045000", "184348.535000", "184350.025000", "184351.515000", "184353.005000", "184354.495000", "184355.985000", "184357.475000", "184358.965000", "184400.455000", "184401.945000", "184403.435000", "184404.925000", "184406.415000", "184407.905000", "184409.395000", "184410.885000", "184412.375000", "184413.865000", "184415.355000", "184416.845000", "184418.335000", "184419.825000", "184421.315000", "184422.805000", "184424.295000", "184425.785000", "184427.275000", "184428.765000", "184430.255000", "184431.745000", "184433.235000", "184434.725000", "184436.215000", "184437.705000", "184439.195000", "184440.685000", "184442.175000", "184443.665000", "184445.155000", "184446.645000", "184448.135000", "184449.625000", "184451.115000", "184452.605000", "184454.095000", "184455.585000", "184457.075000", "184458.565000", "184500.055000", "184501.545000", "184503.035000", "184504.525000", "184506.015000", "184507.505000", "184508.995000", "184510.485000", "184511.975000", "184513.465000", "184514.955000", "184516.445000", "184517.935000", "184519.425000", "184520.915000", "184522.405000", "184523.895000", "184525.385000", "184526.875000", "184528.365000", "184529.855000", "184531.345000", "184532.835000", "184534.325000", "184535.815000", "184537.305000", "184538.795000", "184540.285000", "184541.775000", "184543.265000", "184544.755000", "184546.245000", "184547.735000", "184549.225000", "184550.715000", "184552.205000", "184553.695000", "184555.185000", "184556.675000", "184558.165000", "184559.655000", "184601.145000", "184602.635000", "184604.125000", "184605.615000", "184607.105000", "184608.595000", "184610.085000", "184611.575000", "184613.065000", "184614.555000", "184616.045000", "184617.535000", "184619.025000", "184620.515000", "184622.005000", "184623.495000", "184624.985000"],
      "ContentTime": ["184232.702000", "184232.708000", "184232.711000", "184232.715000", "184232.718000", "184232.722000", "184232.725000", "184232.729000", "184232.732000", "184252.664000", "184252.668000", "184252.680000", "184252.684000", "184252.687000", "184252.691000", "184252.694000", "184252.698000", "184252.701000", "184252.705000", "184252.708000", "184252.712000", "184252.715000", "184252.719000", "184252.722000", "184252.726000", "184252.729000", "184252.732000", "184252.736000", "184252.739000", "184312.665000", "184312.668000", "184312.672000", "184312.677000", "184312.681000", "184312.684000", "184312.717000", "184312.720000", "184312.724000", "184312.727000", "184312.731000", "184312.734000", "184312.737000", "184312.741000", "184312.744000", "184312.748000", "184312.751000", "184312.755000", "184312.758000", "184312.762000", "184332.664000", "184332.668000", "184332.672000", "184332.675000", "184332.678000", "184332.682000", "184332.686000", "184332.689000", "184332.693000", "184332.696000", "184332.700000", "184332.703000", "184332.707000", "184332.710000", "184332.714000", "184332.717000", "184332.721000", "184332.724000", "184332.728000", "184332.731000", "184332.734000", "184352.664000", "184352.668000", "184352.671000", "184352.675000", "184352.679000", "184352.682000", "184352.685000", "184352.689000", "184352.693000", "184352.696000", "184352.699000", "184352.703000", "184352.707000", "184352.710000", "184352.714000", "184352.717000", "184352.721000", "184352.725000", "184352.729000", "184352.732000", "184432.664000", "184432.668000", "184432.671000", "184432.675000", "184432.679000", "184432.682000", "184432.685000", "184432.701000", "184432.705000", "184432.709000", "184432.712000", "184432.716000", "184432.719000", "184432.723000", "184432.726000", "184432.730000", "184432.734000", "184432.737000", "184432.748000", "184432.751000", "184432.755000", "184432.758000", "184432.762000", "184432.765000", "184432.769000", "184432.772000", "184432.775000", "184432.779000", "184512.664000", "184512.668000", "184512.672000", "184512.675000", "184512.679000", "184512.682000", "184512.686000", "184512.689000", "184512.693000", "184512.696000", "184512.700000", "184512.703000", "184512.707000", "184512.710000", "184512.714000", "184512.717000", "184512.721000", "184512.724000", "184512.727000", "184512.731000", "184512.735000", "184512.738000", "184512.741000", "184512.745000", "184512.748000", "184512.752000", "184512.755000", "184552.664000", "184552.668000", "184552.672000", "184552.675000", "184552.679000", "184552.682000", "184552.690000", "184552.694000", "184552.697000", "184552.701000", "184552.705000", "184552.709000", "184552.712000", "184552.716000", "184552.719000", "184552.723000", "184552.726000", "184552.729000", "184552.733000", "184552.736000", "184552.740000", "184552.743000", "184552.747000", "184552.750000", "184552.754000", "184552.757000", "184552.761000", "184632.664000", "184632.668000", "184632.672000", "184632.675000", "184632.679000", "184632.682000", "184632.685000", "184632.689000", "184632.693000", "184632.696000", "184632.700000", "184632.703000", "184632.710000", "184632.713000", "184632.717000", "184632.721000", "184632.725000", "184632.728000", "184632.732000", "184632.735000", "184632.739000", "184632.742000", "184632.746000", "184632.749000", "184632.753000", "184632.769000", "184637.242000", "184637.245000", "184637.249000", "184637.258000"],
      "InstanceCreationTime": ["184232.702000", "184232.708000", "184232.711000", "184232.715000", "184232.718000", "184232.722000", "184232.725000", "184232.729000", "184232.732000", "184252.664000", "184252.668000", "184252.680000", "184252.684000", "184252.687000", "184252.691000", "184252.694000", "184252.698000", "184252.701000", "184252.705000", "184252.708000", "184252.712000", "184252.715000", "184252.719000", "184252.722000", "184252.726000", "184252.729000", "184252.732000", "184252.736000", "184252.739000", "184312.665000", "184312.668000", "184312.672000", "184312.677000", "184312.681000", "184312.684000", "184312.717000", "184312.720000", "184312.724000", "184312.727000", "184312.731000", "184312.734000", "184312.737000", "184312.741000", "184312.744000", "184312.748000", "184312.751000", "184312.755000", "184312.758000", "184312.762000", "184332.664000", "184332.668000", "184332.672000", "184332.675000", "184332.678000", "184332.682000", "184332.686000", "184332.689000", "184332.693000", "184332.696000", "184332.700000", "184332.703000", "184332.707000", "184332.710000", "184332.714000", "184332.717000", "184332.721000", "184332.724000", "184332.728000", "184332.731000", "184332.734000", "184352.664000", "184352.668000", "184352.671000", "184352.675000", "184352.679000", "184352.682000", "184352.685000", "184352.689000", "184352.693000", "184352.696000", "184352.699000", "184352.703000", "184352.707000", "184352.710000", "184352.714000", "184352.717000", "184352.721000", "184352.725000", "184352.729000", "184352.732000", "184432.664000", "184432.668000", "184432.671000", "184432.675000", "184432.679000", "184432.682000", "184432.685000", "184432.701000", "184432.705000", "184432.709000", "184432.712000", "184432.716000", "184432.719000", "184432.723000", "184432.726000", "184432.730000", "184432.734000", "184432.737000", "184432.748000", "184432.751000", "184432.755000", "184432.758000", "184432.762000", "184432.765000", "184432.769000", "184432.772000", "184432.775000", "184432.779000", "184512.664000", "184512.668000", "184512.672000", "184512.675000", "184512.679000", "184512.682000", "184512.686000", "184512.689000", "184512.693000", "184512.696000", "184512.700000", "184512.703000", "184512.707000", "184512.710000", "184512.714000", "184512.717000", "184512.721000", "184512.724000", "184512.727000", "184512.731000", "184512.735000", "184512.738000", "184512.741000", "184512.745000", "184512.748000", "184512.752000", "184512.755000", "184552.664000", "184552.668000", "184552.672000", "184552.675000", "184552.679000", "184552.682000", "184552.690000", "184552.694000", "184552.697000", "184552.701000", "184552.705000", "184552.709000", "184552.712000", "184552.716000", "184552.719000", "184552.723000", "184552.726000", "184552.729000", "184552.733000", "184552.736000", "184552.740000", "184552.743000", "184552.747000", "184552.750000", "184552.754000", "184552.757000", "184552.761000", "184632.664000", "184632.668000", "184632.672000", "184632.675000", "184632.679000", "184632.682000", "184632.685000", "184632.689000", "184632.693000", "184632.696000", "184632.700000", "184632.703000", "184632.710000", "184632.713000", "184632.717000", "184632.721000", "184632.725000", "184632.728000", "184632.732000", "184632.735000", "184632.739000", "184632.742000", "184632.746000", "184632.749000", "184632.753000", "184632.769000", "184637.242000", "184637.245000", "184637.249000", "184637.258000"],
      "InstanceNumber": [1, 2, 3, 4, 5, 6, 7, 8, 9, 10, 11, 12, 13, 14, 15, 16, 17, 18, 19, 20, 21, 22, 23, 24, 25, 26, 27, 28, 29, 30, 31, 32, 33, 34, 35, 36, 37, 38, 39, 40, 41, 42, 43, 44, 45, 46, 47, 48, 49, 50, 51, 52, 53, 54, 55, 56, 57, 58, 59, 60, 61, 62, 63, 64, 65, 66, 67, 68, 69, 70, 71, 72, 73, 74, 75, 76, 77, 78, 79, 80, 81, 82, 83, 84, 85, 86, 87, 88, 89, 90, 91, 92, 93, 94, 95, 96, 97, 98, 99, 100, 101, 102, 103, 104, 105, 106, 107, 108, 109, 110, 111, 112, 113, 114, 115, 116, 117, 118, 119, 120, 121, 122, 123, 124, 125, 126, 127, 128, 129, 130, 131, 132, 133, 134, 135, 136, 137, 138, 139, 140, 141, 142, 143, 144, 145, 146, 147, 148, 149, 150, 151, 152, 153, 154, 155, 156, 157, 158, 159, 160, 161, 162, 163, 164, 165, 166, 167, 168, 169, 170, 171, 172, 173, 174, 175, 176, 177, 178, 179, 180, 181, 182, 183, 184, 185, 186, 187, 188, 189, 190, 191, 192, 193, 194, 195, 196, 197, 198, 199, 200, 201, 202],
      "LargestImagePixelValue": [61901, 60364, 58873, 58551, 57418, 57584, 57736, 57889, 57638, 57452, 57841, 57633, 57203, 57290, 57063, 57551, 57255, 57409, 57336, 57253, 57453, 57637, 57648, 57597, 57575, 57462, 57466, 57373, 57606, 57268, 57252, 57505, 57511, 57450, 57575, 57113, 57312, 57564, 57699, 57638, 57390, 57663, 57838, 57207, 57979, 57301, 57405, 57557, 56918, 56956, 57414, 57206, 57010, 56790, 56783, 57086, 57006, 57361, 57572, 57227, 56907, 57310, 57385, 57150, 57653, 57222, 57533, 57380, 57380, 56740, 56562, 56687, 57419, 56906, 57164, 57456, 56714, 56628, 57103, 56619, 57136, 56936, 57564, 57442, 57724, 56966, 57287, 56999, 56993, 57255, 57973, 57452, 57956, 57797, 58333, 57927, 57706, 57285, 57139, 56999, 57356, 57714, 57259, 58194, 57622, 57069, 57323, 57943, 58343, 57478, 57328, 57691, 57624, 57271, 57338, 58023, 57934, 57251, 58007, 57817, 57400, 57882, 57662, 57981, 57271, 57758, 57358, 58492, 56992, 58201, 57562, 57011, 57289, 57162, 57767, 57471, 58029, 58259, 57003, 57327, 57335, 57629, 58491, 58464, 58457, 58253, 58515, 58280, 58028, 57552, 57734, 57348, 57910, 58387, 58021, 57436, 57576, 58062, 57566, 57972, 57726, 57935, 56951, 57276, 57663, 56983, 57391, 56923, 57696, 57045, 57230, 57808, 57874, 56936, 57520, 56884, 57282, 56401, 56779, 57592, 56773, 56762, 56793, 56905, 56336, 56918, 56118, 56374, 56136, 56488, 56331, 56245, 56363, 56336, 56385, 56101, 56213, 56413, 56522, 56200, 56315, 56028],
      "WindowCenter": [10681.0, 10642.0, 10616.0, 10589.0, 10542.0, 10560.0, 10546.0, 10571.0, 10566.0, 10581.0, 10582.0, 10584.0, 10578.0, 10578.0, 10572.0, 10582.0, 10561.0, 10552.0, 10534.0, 10536.0, 10548.0, 10550.0, 10550.0, 10541.0, 10533.0, 10548.0, 10557.0, 10566.0, 10574.0, 10577.0, 10586.0, 10589.0, 10584.0, 10582.0, 10574.0, 10553.0, 10565.0, 10572.0, 10574.0, 10560.0, 10552.0, 10560.0, 10556.0, 10551.0, 10568.0, 10585.0, 10597.0, 10595.0, 10576.0, 10558.0, 10547.0, 10543.0, 10563.0, 10561.0, 10553.0, 10551.0, 10549.0, 10554.0, 10561.0, 10553.0, 10563.0, 10580.0, 10588.0, 10576.0, 10578.0, 10587.0, 10591.0, 10598.0, 10600.0, 10586.0, 10577.0, 10561.0, 10563.0, 10549.0, 10562.0, 10565.0, 10562.0, 10546.0, 10531.0, 10533.0, 10544.0, 10556.0, 10600.0, 10596.0, 10578.0, 10557.0, 10568.0, 10558.0, 10553.0, 10534.0, 10523.0, 10505.0, 10524.0, 10543.0, 10552.0, 10544.0, 10526.0, 10523.0, 10531.0, 10557.0, 10565.0, 10571.0, 10563.0, 10590.0, 10555.0, 10585.0, 10577.0, 10596.0, 10595.0, 10590.0, 10577.0, 10566.0, 10559.0, 10551.0, 10564.0, 10571.0, 10556.0, 10545.0, 10553.0, 10571.0, 10592.0, 10574.0, 10574.0, 10573.0, 10572.0, 10581.0, 10597.0, 10612.0, 10596.0, 10597.0, 10574.0, 10557.0, 10569.0, 10586.0, 10573.0, 10533.0, 10524.0, 10515.0, 10500.0, 10491.0, 10495.0, 10495.0, 10507.0, 10529.0, 10534.0, 10525.0, 10540.0, 10530.0, 10541.0, 10534.0, 10550.0, 10552.0, 10562.0, 10563.0, 10532.0, 10508.0, 10504.0, 10517.0, 10548.0, 10584.0, 10583.0, 10579.0, 10556.0, 10544.0, 10561.0, 10550.0, 10544.0, 10536.0, 10534.0, 10527.0, 10524.0, 10536.0, 10538.0, 10540.0, 10556.0, 10558.0, 10558.0, 10548.0, 10558.0, 10579.0, 10585.0, 10598.0, 10597.0, 10596.0, 10583.0, 10585.0, 10583.0, 10589.0, 10593.0, 10596.0, 10585.0, 10568.0, 10560.0, 10555.0, 10556.0, 10557.0, 10564.0, 10572.0, 10564.0, 10551.0, 10540.0, 10542.0],
      "WindowWidth": [23232.0, 23100.0, 23016.0, 22937.0, 22817.0, 22848.0, 22813.0, 22866.0, 22857.0, 22889.0, 22892.0, 22898.0, 22886.0, 22884.0, 22870.0, 22889.0, 22842.0, 22821.0, 22785.0, 22784.0, 22809.0, 22816.0, 22816.0, 22796.0, 22781.0, 22815.0, 22835.0, 22858.0, 22874.0, 22883.0, 22906.0, 22909.0, 22898.0, 22892.0, 22873.0, 22827.0, 22850.0, 22866.0, 22873.0, 22838.0, 22822.0, 22849.0, 22835.0, 22821.0, 22853.0, 22896.0, 22926.0, 22920.0, 22879.0, 22839.0, 22811.0, 22795.0, 22847.0, 22846.0, 22830.0, 22824.0, 22816.0, 22829.0, 22845.0, 22825.0, 22846.0, 22895.0, 22911.0, 22881.0, 22887.0, 22898.0, 22912.0, 22928.0, 22935.0, 22903.0, 22883.0, 22852.0, 22850.0, 22814.0, 22841.0, 22853.0, 22858.0, 22821.0, 22784.0, 22779.0, 22802.0, 22832.0, 22929.0, 22924.0, 22884.0, 22837.0, 22858.0, 22835.0, 22826.0, 22781.0, 22758.0, 22711.0, 22755.0, 22798.0, 22818.0, 22804.0, 22764.0, 22751.0, 22773.0, 22829.0, 22849.0, 22863.0, 22843.0, 22913.0, 22826.0, 22893.0, 22879.0, 22919.0, 22916.0, 22906.0, 22878.0, 22852.0, 22834.0, 22819.0, 22847.0, 22862.0, 22830.0, 22811.0, 22820.0, 22866.0, 22942.0, 22869.0, 22877.0, 22873.0, 22864.0, 22884.0, 22922.0, 22954.0, 22920.0, 22920.0, 22872.0, 22832.0, 22862.0, 22906.0, 22874.0, 22778.0, 22748.0, 22724.0, 22691.0, 22666.0, 22679.0, 22681.0, 22705.0, 22754.0, 22768.0, 22750.0, 22780.0, 22758.0, 22785.0, 22774.0, 22803.0, 22809.0, 22837.0, 22858.0, 22771.0, 22724.0, 22707.0, 22732.0, 22803.0, 22890.0, 22891.0, 22879.0, 22842.0, 22804.0, 22839.0, 22808.0, 22795.0, 22779.0, 22773.0, 22760.0, 22753.0, 22778.0, 22783.0, 22787.0, 22828.0, 22832.0, 22831.0, 22813.0, 22831.0, 22878.0, 22896.0, 22927.0, 22926.0, 22923.0, 22893.0, 22895.0, 22896.0, 22906.0, 22918.0, 22922.0, 22902.0, 22862.0, 22843.0, 22828.0, 22832.0, 22833.0, 22850.0, 22868.0, 22848.0, 22820.0, 22796.0, 22801.0]
    },
    "slices": {}
  }
}