{
  "AcquisitionMatrixPE": 104,
  "AcquisitionNumber": 1,
  "AcquisitionTime": "18:28:6.622500",
  "BandwidthPerPixelPhaseEncode": 17.17,
  "BaseResolution": 104,
  "BodyPartExamined": "BRAIN",
  "CoilCombinationMethod": "Sum of Squares",
  "ConsistencyInfo": "N4_VE11C_LATEST_20160120",
  "ConversionSoftware": "dcm2niix",
  "ConversionSoftwareVersion": "v1.0.20230411",
  "DerivedVendorReportedEchoSpacing": 0.000560011,
  "DeviceSerialNumber": "167006",
  "DwellTime": 2.1e-06,
  "EchoTime": 0.037,
  "EchoTrainLength": 104,
  "EffectiveEchoSpacing": 0.000560011,
  "FlipAngle": 52,
  "HeudiconvVersion": "0.5.3.post861+ge7d3c7f",
  "ImageComments": "Unaliased MB4/PE3/LB",
  "ImageOrientationPatientDICOM": [0.999689, -0.0212623, 0.0130153, 0.0246064, 0.925366, -0.378276],
  "ImageOrientationText": "Tra>Cor(-22.2)>Sag(0.2)",
  "ImageType": [
    "ORIGINAL",
    "PRIMARY",
    "M",
    "MB",
    "ND",
    "MOSAIC"
],
  "ImagingFrequency": 123.249568,
  "InPlanePhaseEncodingDirectionDICOM": "COL",
  "InstitutionAddress": "Chemin Queen-Mary 4565,Montreal,District,CA,H3W 1W5",
  "InstitutionName": "IUGM",
  "InstitutionalDepartmentName": "Department",
  "MRAcquisitionType": "2D",
  "MagneticFieldStrength": 3,
  "Manufacturer": "Siemens",
  "ManufacturersModelName": "Prisma_fit",
  "MatrixCoilMode": "SENSE",
  "Modality": "MR",
  "MultibandAccelerationFactor": 4,
  "NonlinearGradientCorrection": false,
  "PartialFourier": 1,
  "PatientPosition": "HFS",
  "PercentPhaseFOV": 100,
  "PercentSampling": 100,
  "PhaseEncodingDirection": "j",
  "PhaseEncodingSteps": 104,
  "PhaseResolution": 1,
  "PixelBandwidth": 2290,
  "ProcedureStepDescription": "localizers^retinotopy",
  "ProtocolName": "func_task-wedges",
  "PulseSequenceDetails": "%CustomerSeq%\\cmrr_mbep2d_bold",
  "ReceiveCoilActiveElements": "HC1-7;NC1,2",
  "ReceiveCoilName": "HeadNeck_64",
  "ReconMatrixPE": 104,
  "RepetitionTime": 1.49,
  "SAR": 0.0580041,
  "ScanOptions": "FS",
  "ScanningSequence": "EP",
  "SequenceName": "epfid2d1_104",
  "SequenceVariant": "SK\\SS",
  "SeriesDescription": "func_task-wedges",
  "SeriesNumber": 13,
  "ShimSetting": [582, -7267, -8816, 388, 6, -298, -7, 103],
  "SliceThickness": 2,
  "SliceTiming": [0, 0.785, 0.0975, 0.8825, 0.195, 0.98, 0.295, 1.0775, 0.3925, 1.175, 0.49, 1.275, 0.5875, 1.3725, 0.685, 0, 0.785, 0.0975, 0.8825, 0.195, 0.98, 0.295, 1.0775, 0.3925, 1.175, 0.49, 1.275, 0.5875, 1.3725, 0.685, 0, 0.785, 0.0975, 0.8825, 0.195, 0.98, 0.295, 1.0775, 0.3925, 1.175, 0.49, 1.275, 0.5875, 1.3725, 0.685, 0, 0.785, 0.0975, 0.8825, 0.195, 0.98, 0.295, 1.0775, 0.3925, 1.175, 0.49, 1.275, 0.5875, 1.3725, 0.685],
  "SoftwareVersions": "syngo MR E11",
  "SpacingBetweenSlices": 2,
  "StationName": "MRC35049",
  "TaskName": "wedges",
  "TotalReadoutTime": 0.0576811,
  "TxRefAmp": 269.345,
  "WipMemBlock": "1b5e9586-d9fa-4fe5-85c3-2bfb69cbe0f3||Sequence: R017 ve11c/master r/75a17815+; Jun 28 2022 16:32:11 by eja",
  "dcmmeta_affine": [
    [-1.9993784427642822, 0.04921288043260574, 0.008001720532774925, 102.10659790039062],
    [0.04252465441823006, 1.8507317304611206, -0.7569568753242493, -62.61049270629883],
    [0.026030534878373146, 0.7565515041351318, 1.8512028455734253, -65.84452819824219],
    [0.0, 0.0, 0.0, 1.0]
],
  "dcmmeta_reorient_transform": [
    [0.0, -1.0, 0.0, 103.0],
    [1.0, 0.0, 0.0, 0.0],
    [0.0, 0.0, 1.0, 0.0],
    [0.0, 0.0, 0.0, 1.0]
],
  "dcmmeta_shape": [104, 104, 60, 202],
  "dcmmeta_slice_dim": 2,
  "dcmmeta_version": 0.6,
  "global": {
    "const": {
      "AcquisitionMatrix": [104, 0, 0, 104],
      "AngioFlag": "N",
      "BitsAllocated": 16,
      "BitsStored": 16,
      "BodyPartExamined": "BRAIN",
      "Columns": 832,
      "EchoNumbers": 1,
      "EchoTime": 37.0,
      "EchoTrainLength": 104,
      "FlipAngle": 52.0,
      "HighBit": 15,
      "ImageOrientationPatient": [0.99968920983458, -0.0212623273769, 0.01301526699053, 0.0246064392933, 0.92536585786796, -0.3782757621598],
      "ImagePositionPatient": [-852.86275958584, -786.20224314248, 277.989919313],
      "ImageType": [
        "ORIGINAL",
        "PRIMARY",
        "M",
        "MB",
        "ND",
        "MOSAIC"
],
      "ImagedNucleus": "1H",
      "ImagingFrequency": 123.249568,
      "InPlanePhaseEncodingDirection": "COL",
      "MRAcquisitionType": "2D",
      "MagneticFieldStrength": 3.0,
      "Manufacturer": "SIEMENS",
      "ManufacturerModelName": "Prisma_fit",
      "Modality": "MR",
      "NumberOfAverages": 1.0,
      "NumberOfPhaseEncodingSteps": 104,
      "PercentPhaseFieldOfView": 100.0,
      "PercentSampling": 100.0,
      "PerformedProcedureStepStartTime": "182254.279000",
      "PhotometricInterpretation": "MONOCHROME2",
      "PixelBandwidth": 2290.0,
      "PixelRepresentation": 0,
      "PixelSpacing": [2.0, 2.0],
      "ProtocolName": "func_task-wedges",
      "RepetitionTime": 1490.0,
      "Rows": 832,
      "SAR": 0.05800406431685,
      "SamplesPerPixel": 1,
      "ScanOptions": "FS",
      "ScanningSequence": "EP",
      "SequenceName": "epfid2d1_104",
      "SequenceVariant": [
        "SK",
        "SS"
],
      "SeriesDescription": "func_task-wedges",
      "SeriesNumber": 13,
      "SeriesTime": "182940.249000",
      "SliceLocation": -36.840553617421,
      "SliceThickness": 2.0,
      "SmallestImagePixelValue": 0,
      "SoftwareVersions": "syngo MR E11",
      "SpacingBetweenSlices": 1.9999999406212,
      "SpecificCharacterSet": "ISO_IR 100",
      "StudyID": "1",
      "StudyTime": "182254.194000",
      "TransmitCoilName": "Body",
      "VariableFlipAngleFlag": "N",
      "WindowCenterWidthExplanation": "Algo1",
      "dBdt": 0.0},
    "slices": {}
  },
  "time": {
    "samples": {
      "AcquisitionNumber": [1, 2, 3, 4, 5, 6, 7, 8, 9, 10, 11, 12, 13, 14, 15, 16, 17, 18, 19, 20, 21, 22, 23, 24, 25, 26, 27, 28, 29, 30, 31, 32, 33, 34, 35, 36, 37, 38, 39, 40, 41, 42, 43, 44, 45, 46, 47, 48, 49, 50, 51, 52, 53, 54, 55, 56, 57, 58, 59, 60, 61, 62, 63, 64, 65, 66, 67, 68, 69, 70, 71, 72, 73, 74, 75, 76, 77, 78, 79, 80, 81, 82, 83, 84, 85, 86, 87, 88, 89, 90, 91, 92, 93, 94, 95, 96, 97, 98, 99, 100, 101, 102, 103, 104, 105, 106, 107, 108, 109, 110, 111, 112, 113, 114, 115, 116, 117, 118, 119, 120, 121, 122, 123, 124, 125, 126, 127, 128, 129, 130, 131, 132, 133, 134, 135, 136, 137, 138, 139, 140, 141, 142, 143, 144, 145, 146, 147, 148, 149, 150, 151, 152, 153, 154, 155, 156, 157, 158, 159, 160, 161, 162, 163, 164, 165, 166, 167, 168, 169, 170, 171, 172, 173, 174, 175, 176, 177, 178, 179, 180, 181, 182, 183, 184, 185, 186, 187, 188, 189, 190, 191, 192, 193, 194, 195, 196, 197, 198, 199, 200, 201, 202],
      "AcquisitionTime": ["182806.622500", "182808.112500", "182809.602500", "182811.092500", "182812.582500", "182814.072500", "182815.562500", "182817.052500", "182818.542500", "182820.032500", "182821.522500", "182823.012500", "182824.502500", "182825.992500", "182827.482500", "182828.972500", "182830.462500", "182831.952500", "182833.442500", "182834.932500", "182836.422500", "182837.912500", "182839.402500", "182840.892500", "182842.382500", "182843.872500", "182845.362500", "182846.852500", "182848.342500", "182849.832500", "182851.322500", "182852.812500", "182854.302500", "182855.792500", "182857.282500", "182858.772500", "182900.262500", "182901.752500", "182903.242500", "182904.732500", "182906.222500", "182907.712500", "182909.202500", "182910.692500", "182912.182500", "182913.672500", "182915.162500", "182916.652500", "182918.142500", "182919.632500", "182921.122500", "182922.612500", "182924.102500", "182925.592500", "182927.082500", "182928.572500", "182930.062500", "182931.552500", "182933.042500", "182934.532500", "182936.022500", "182937.512500", "182939.002500", "182940.492500", "182941.982500", "182943.472500", "182944.962500", "182946.452500", "182947.942500", "182949.432500", "182950.922500", "182952.412500", "182953.902500", "182955.392500", "182956.882500", "182958.372500", "182959.862500", "183001.352500", "183002.842500", "183004.332500", "183005.822500", "183007.312500", "183008.802500", "183010.292500", "183011.782500", "183013.272500", "183014.762500", "183016.252500", "183017.742500", "183019.232500", "183020.722500", "183022.212500", "183023.702500", "183025.192500", "183026.682500", "183028.172500", "183029.662500", "183031.152500", "183032.642500", "183034.132500", "183035.622500", "183037.112500", "183038.602500", "183040.092500", "183041.582500", "183043.072500", "183044.562500", "183046.052500", "183047.542500", "183049.032500", "183050.522500", "183052.012500", "183053.502500", "183054.992500", "183056.482500", "183057.972500", "183059.462500", "183100.952500", "183102.442500", "183103.932500", "183105.422500", "183106.912500", "183108.402500", "183109.892500", "183111.382500", "183112.872500", "183114.362500", "183115.852500", "183117.342500", "183118.832500", "183120.322500", "183121.812500", "183123.302500", "183124.792500", "183126.282500", "183127.772500", "183129.262500", "183130.752500", "183132.242500", "183133.732500", "183135.222500", "183136.712500", "183138.202500", "183139.692500", "183141.182500", "183142.672500", "183144.162500", "183145.652500", "183147.142500", "183148.632500", "183150.122500", "183151.612500", "183153.102500", "183154.592500", "183156.082500", "183157.572500", "183159.062500", "183200.552500", "183202.042500", "183203.532500", "183205.022500", "183206.512500", "183208.002500", "183209.492500", "183210.982500", "183212.472500", "183213.962500", "183215.452500", "183216.942500", "183218.432500", "183219.922500", "183221.412500", "183222.902500", "183224.392500", "183225.882500", "183227.372500", "183228.862500", "183230.352500", "183231.842500", "183233.332500", "183234.822500", "183236.312500", "183237.802500", "183239.292500", "183240.782500", "183242.272500", "183243.762500", "183245.252500", "183246.742500", "183248.232500", "183249.722500", "183251.212500", "183252.702500", "183254.192500", "183255.682500", "183257.172500", "183258.662500", "183300.152500", "183301.642500", "183303.132500", "183304.622500", "183306.112500"],
      "ContentTime": ["182940.252000", "182940.256000", "182940.259000", "182940.263000", "182940.266000", "182940.270000", "182940.273000", "182940.277000", "182940.280000", "182940.283000", "182940.287000", "182940.290000", "182940.294000", "182940.297000", "182940.301000", "182940.304000", "182940.307000", "182940.311000", "182940.314000", "182940.318000", "182940.321000", "182940.324000", "182940.328000", "182940.331000", "182940.334000", "182940.338000", "182940.341000", "182940.345000", "182940.348000", "182940.352000", "182940.355000", "182940.359000", "182940.362000", "183000.219000", "183000.223000", "183000.227000", "183000.230000", "183000.233000", "183000.237000", "183000.240000", "183000.244000", "183000.247000", "183000.251000", "183000.254000", "183000.257000", "183000.261000", "183000.264000", "183000.268000", "183000.271000", "183000.274000", "183000.278000", "183000.281000", "183000.285000", "183020.219000", "183020.223000", "183020.226000", "183020.230000", "183020.233000", "183020.237000", "183020.240000", "183020.243000", "183020.247000", "183020.250000", "183020.254000", "183020.257000", "183020.261000", "183020.264000", "183020.267000", "183020.271000", "183020.274000", "183020.278000", "183020.281000", "183020.284000", "183040.219000", "183040.223000", "183040.226000", "183040.230000", "183040.233000", "183040.237000", "183040.240000", "183040.244000", "183040.248000", "183040.252000", "183040.255000", "183040.259000", "183040.262000", "183040.267000", "183040.271000", "183040.274000", "183040.278000", "183040.281000", "183040.285000", "183040.288000", "183120.219000", "183120.223000", "183120.227000", "183120.230000", "183120.234000", "183120.237000", "183120.240000", "183120.244000", "183120.247000", "183120.251000", "183120.254000", "183120.258000", "183120.261000", "183120.264000", "183120.268000", "183120.271000", "183120.275000", "183120.278000", "183120.281000", "183120.285000", "183120.288000", "183120.292000", "183120.295000", "183120.299000", "183120.302000", "183120.305000", "183120.309000", "183120.312000", "183120.316000", "183200.219000", "183200.223000", "183200.227000", "183200.230000", "183200.233000", "183200.237000", "183200.240000", "183200.244000", "183200.247000", "183200.251000", "183200.254000", "183200.258000", "183200.261000", "183200.264000", "183200.268000", "183200.271000", "183200.275000", "183200.278000", "183200.282000", "183200.285000", "183200.289000", "183200.292000", "183200.296000", "183200.299000", "183200.302000", "183200.306000", "183200.309000", "183240.220000", "183240.224000", "183240.227000", "183240.231000", "183240.234000", "183240.237000", "183240.241000", "183240.245000", "183240.248000", "183240.251000", "183240.255000", "183240.258000", "183240.262000", "183240.265000", "183240.269000", "183240.272000", "183240.276000", "183240.279000", "183240.282000", "183240.286000", "183240.289000", "183240.308000", "183240.311000", "183240.315000", "183240.318000", "183240.322000", "183240.325000", "183318.995000", "183319.000000", "183319.003000", "183319.007000", "183319.010000", "183319.014000", "183319.017000", "183319.021000", "183319.025000", "183319.028000", "183319.032000", "183319.035000", "183319.038000", "183319.042000", "183319.046000", "183319.050000", "183319.053000", "183319.057000", "183319.061000", "183319.065000", "183319.071000", "183319.074000", "183319.078000", "183319.081000", "183319.085000", "183319.089000"],
      "InstanceCreationTime": ["182940.252000", "182940.256000", "182940.259000", "182940.263000", "182940.266000", "182940.270000", "182940.273000", "182940.277000", "182940.280000", "182940.283000", "182940.287000", "182940.290000", "182940.294000", "182940.297000", "182940.301000", "182940.304000", "182940.307000", "182940.311000", "182940.314000", "182940.318000", "182940.321000", "182940.324000", "182940.328000", "182940.331000", "182940.334000", "182940.338000", "182940.341000", "182940.345000", "182940.348000", "182940.352000", "182940.355000", "182940.359000", "182940.362000", "183000.219000", "183000.223000", "183000.227000", "183000.230000", "183000.233000", "183000.237000", "183000.240000", "183000.244000", "183000.247000", "183000.251000", "183000.254000", "183000.257000", "183000.261000", "183000.264000", "183000.268000", "183000.271000", "183000.274000", "183000.278000", "183000.281000", "183000.285000", "183020.219000", "183020.223000", "183020.226000", "183020.230000", "183020.233000", "183020.237000", "183020.240000", "183020.243000", "183020.247000", "183020.250000", "183020.254000", "183020.257000", "183020.261000", "183020.264000", "183020.267000", "183020.271000", "183020.274000", "183020.278000", "183020.281000", "183020.284000", "183040.219000", "183040.223000", "183040.226000", "183040.230000", "183040.233000", "183040.237000", "183040.240000", "183040.244000", "183040.248000", "183040.252000", "183040.255000", "183040.259000", "183040.262000", "183040.267000", "183040.271000", "183040.274000", "183040.278000", "183040.281000", "183040.285000", "183040.288000", "183120.219000", "183120.223000", "183120.227000", "183120.230000", "183120.234000", "183120.237000", "183120.240000", "183120.244000", "183120.247000", "183120.251000", "183120.254000", "183120.258000", "183120.261000", "183120.264000", "183120.268000", "183120.271000", "183120.275000", "183120.278000", "183120.281000", "183120.285000", "183120.288000", "183120.292000", "183120.295000", "183120.299000", "183120.302000", "183120.305000", "183120.309000", "183120.312000", "183120.316000", "183200.219000", "183200.223000", "183200.227000", "183200.230000", "183200.233000", "183200.237000", "183200.240000", "183200.244000", "183200.247000", "183200.251000", "183200.254000", "183200.258000", "183200.261000", "183200.264000", "183200.268000", "183200.271000", "183200.275000", "183200.278000", "183200.282000", "183200.285000", "183200.289000", "183200.292000", "183200.296000", "183200.299000", "183200.302000", "183200.306000", "183200.309000", "183240.220000", "183240.224000", "183240.227000", "183240.231000", "183240.234000", "183240.237000", "183240.241000", "183240.245000", "183240.248000", "183240.251000", "183240.255000", "183240.258000", "183240.262000", "183240.265000", "183240.269000", "183240.272000", "183240.276000", "183240.279000", "183240.282000", "183240.286000", "183240.289000", "183240.308000", "183240.311000", "183240.315000", "183240.318000", "183240.322000", "183240.325000", "183318.995000", "183319.000000", "183319.003000", "183319.007000", "183319.010000", "183319.014000", "183319.017000", "183319.021000", "183319.025000", "183319.028000", "183319.032000", "183319.035000", "183319.038000", "183319.042000", "183319.046000", "183319.050000", "183319.053000", "183319.057000", "183319.061000", "183319.065000", "183319.071000", "183319.074000", "183319.078000", "183319.081000", "183319.085000", "183319.089000"],
      "InstanceNumber": [1, 2, 3, 4, 5, 6, 7, 8, 9, 10, 11, 12, 13, 14, 15, 16, 17, 18, 19, 20, 21, 22, 23, 24, 25, 26, 27, 28, 29, 30, 31, 32, 33, 34, 35, 36, 37, 38, 39, 40, 41, 42, 43, 44, 45, 46, 47, 48, 49, 50, 51, 52, 53, 54, 55, 56, 57, 58, 59, 60, 61, 62, 63, 64, 65, 66, 67, 68, 69, 70, 71, 72, 73, 74, 75, 76, 77, 78, 79, 80, 81, 82, 83, 84, 85, 86, 87, 88, 89, 90, 91, 92, 93, 94, 95, 96, 97, 98, 99, 100, 101, 102, 103, 104, 105, 106, 107, 108, 109, 110, 111, 112, 113, 114, 115, 116, 117, 118, 119, 120, 121, 122, 123, 124, 125, 126, 127, 128, 129, 130, 131, 132, 133, 134, 135, 136, 137, 138, 139, 140, 141, 142, 143, 144, 145, 146, 147, 148, 149, 150, 151, 152, 153, 154, 155, 156, 157, 158, 159, 160, 161, 162, 163, 164, 165, 166, 167, 168, 169, 170, 171, 172, 173, 174, 175, 176, 177, 178, 179, 180, 181, 182, 183, 184, 185, 186, 187, 188, 189, 190, 191, 192, 193, 194, 195, 196, 197, 198, 199, 200, 201, 202],
      "LargestImagePixelValue": [60279, 59293, 58714, 57761, 57510, 56810, 57251, 57295, 57700, 57519, 57718, 57360, 57167, 57163, 56703, 57434, 56724, 57202, 57049, 57085, 56871, 56989, 56813, 56770, 56841, 57040, 56866, 57120, 56839, 56597, 57235, 56754, 56766, 56882, 56732, 56871, 57155, 56546, 56654, 57021, 56231, 56453, 56807, 56922, 57151, 56763, 56899, 57145, 57292, 57619, 58246, 57039, 56745, 57057, 57369, 57849, 57822, 58043, 57069, 57219, 57089, 57047, 56595, 57224, 57220, 56783, 57325, 57809, 57941, 57228, 57563, 57828, 57493, 57317, 57494, 57659, 57844, 58310, 57848, 57794, 57772, 57532, 57352, 57662, 57536, 57456, 58096, 58470, 58396, 57432, 57309, 57774, 58379, 58288, 58048, 57974, 57934, 58018, 58031, 58352, 58546, 57931, 57797, 57855, 57614, 58117, 57665, 57855, 57271, 58076, 58267, 57502, 57903, 58151, 57693, 57454, 57811, 57501, 57869, 57695, 58094, 57970, 58084, 58226, 58013, 58274, 58258, 58273, 58268, 57686, 58398, 58545, 63061, 57651, 57897, 58471, 58895, 58756, 58791, 57653, 58382, 58345, 58489, 58588, 58603, 58201, 57804, 57643, 58162, 58221, 57962, 57289, 57866, 58266, 57946, 58391, 58792, 58797, 58876, 59155, 58444, 58482, 58479, 57962, 57431, 57824, 57586, 57809, 57609, 57911, 57820, 57573, 57874, 57787, 57324, 56807, 57787, 57393, 57690, 57037, 58591, 57687, 57530, 57899, 58016, 58558, 58106, 58023, 58679, 58041, 57707, 57643, 57821, 57502, 57400, 57364, 57429, 57701, 57879, 58586, 58889, 57510],
      "WindowCenter": [10677.0, 10639.0, 10647.0, 10669.0, 10678.0, 10653.0, 10647.0, 10627.0, 10624.0, 10604.0, 10596.0, 10574.0, 10569.0, 10562.0, 10556.0, 10568.0, 10571.0, 10585.0, 10572.0, 10572.0, 10560.0, 10561.0, 10553.0, 10567.0, 10575.0, 10586.0, 10581.0, 10588.0, 10588.0, 10574.0, 10574.0, 10574.0, 10578.0, 10577.0, 10562.0, 10556.0, 10567.0, 10578.0, 10598.0, 10591.0, 10594.0, 10575.0, 10574.0, 10568.0, 10582.0, 10572.0, 10578.0, 10574.0, 10573.0, 10558.0, 10627.0, 10584.0, 10562.0, 10530.0, 10508.0, 10502.0, 10488.0, 10483.0, 10473.0, 10464.0, 10466.0, 10482.0, 10499.0, 10506.0, 10500.0, 10500.0, 10523.0, 10590.0, 10589.0, 10598.0, 10585.0, 10590.0, 10583.0, 10585.0, 10584.0, 10589.0, 10594.0, 10595.0, 10597.0, 10595.0, 10605.0, 10603.0, 10595.0, 10594.0, 10604.0, 10614.0, 10618.0, 10651.0, 10648.0, 10618.0, 10600.0, 10592.0, 10577.0, 10553.0, 10553.0, 10544.0, 10559.0, 10574.0, 10571.0, 10567.0, 10567.0, 10555.0, 10577.0, 10596.0, 10585.0, 10586.0, 10571.0, 10560.0, 10559.0, 10572.0, 10599.0, 10614.0, 10631.0, 10618.0, 10588.0, 10565.0, 10592.0, 10601.0, 10610.0, 10612.0, 10594.0, 10576.0, 10566.0, 10575.0, 10587.0, 10581.0, 10574.0, 10554.0, 10543.0, 10512.0, 10516.0, 10574.0, 10641.0, 10538.0, 10559.0, 10563.0, 10580.0, 10561.0, 10553.0, 10526.0, 10542.0, 10560.0, 10566.0, 10571.0, 10558.0, 10544.0, 10532.0, 10540.0, 10543.0, 10545.0, 10535.0, 10516.0, 10551.0, 10564.0, 10571.0, 10582.0, 10561.0, 10548.0, 10538.0, 10556.0, 10550.0, 10550.0, 10533.0, 10518.0, 10520.0, 10538.0, 10544.0, 10535.0, 10511.0, 10490.0, 10477.0, 10468.0, 10485.0, 10492.0, 10507.0, 10536.0, 10577.0, 10603.0, 10572.0, 10558.0, 10569.0, 10542.0, 10526.0, 10520.0, 10520.0, 10543.0, 10529.0, 10531.0, 10525.0, 10521.0, 10517.0, 10512.0, 10513.0, 10516.0, 10531.0, 10521.0, 10531.0, 10540.0, 10538.0, 10531.0, 10547.0, 10497.0],
      "WindowWidth": [23220.0, 23084.0, 23071.0, 23117.0, 23130.0, 23068.0, 23053.0, 23004.0, 22997.0, 22947.0, 22929.0, 22879.0, 22865.0, 22851.0, 22837.0, 22863.0, 22870.0, 22902.0, 22875.0, 22871.0, 22844.0, 22846.0, 22829.0, 22858.0, 22880.0, 22906.0, 22895.0, 22910.0, 22911.0, 22880.0, 22873.0, 22877.0, 22887.0, 22885.0, 22854.0, 22831.0, 22855.0, 22885.0, 22930.0, 22915.0, 22925.0, 22881.0, 22877.0, 22860.0, 22890.0, 22871.0, 22885.0, 22874.0, 22871.0, 22828.0, 22999.0, 22900.0, 22847.0, 22771.0, 22721.0, 22701.0, 22669.0, 22656.0, 22640.0, 22616.0, 22621.0, 22657.0, 22698.0, 22713.0, 22704.0, 22703.0, 22752.0, 22911.0, 22912.0, 22934.0, 22901.0, 22911.0, 22897.0, 22908.0, 22904.0, 22914.0, 22927.0, 22927.0, 22930.0, 22924.0, 22948.0, 22947.0, 22929.0, 22920.0, 22945.0, 22973.0, 22977.0, 23054.0, 23051.0, 22978.0, 22937.0, 22919.0, 22883.0, 22828.0, 22831.0, 22808.0, 22836.0, 22872.0, 22868.0, 22854.0, 22854.0, 22824.0, 22883.0, 22936.0, 22907.0, 22909.0, 22870.0, 22848.0, 22846.0, 22871.0, 22930.0, 22968.0, 23008.0, 22978.0, 22907.0, 22856.0, 22914.0, 22936.0, 22959.0, 22963.0, 22919.0, 22879.0, 22856.0, 22876.0, 22915.0, 22896.0, 22907.0, 22830.0, 22806.0, 22736.0, 22740.0, 22876.0, 23045.0, 22781.0, 22831.0, 22843.0, 22886.0, 22844.0, 22820.0, 22762.0, 22796.0, 22842.0, 22854.0, 22867.0, 22839.0, 22810.0, 22790.0, 22802.0, 22803.0, 22813.0, 22790.0, 22752.0, 22820.0, 22850.0, 22866.0, 22893.0, 22843.0, 22810.0, 22792.0, 22833.0, 22821.0, 22819.0, 22780.0, 22746.0, 22770.0, 22795.0, 22809.0, 22784.0, 22731.0, 22686.0, 22656.0, 22636.0, 22673.0, 22690.0, 22723.0, 22786.0, 22876.0, 22945.0, 22871.0, 22839.0, 22873.0, 22821.0, 22770.0, 22751.0, 22745.0, 22795.0, 22759.0, 22768.0, 22755.0, 22747.0, 22739.0, 22732.0, 22733.0, 22740.0, 22774.0, 22747.0, 22771.0, 22791.0, 22787.0, 22769.0, 22817.0, 22699.0]
    },
    "slices": {}
  }
}