{
  "AcquisitionMatrixPE": 104,
  "AcquisitionNumber": 1,
  "AcquisitionTime": "19:53:44.252500",
  "BandwidthPerPixelPhaseEncode": 17.17,
  "BaseResolution": 104,
  "BodyPartExamined": "BRAIN",
  "CoilCombinationMethod": "Sum of Squares",
  "ConsistencyInfo": "N4_VE11C_LATEST_20160120",
  "ConversionSoftware": "dcm2niix",
  "ConversionSoftwareVersion": "v1.0.20230411",
  "DerivedVendorReportedEchoSpacing": 0.000560011,
  "DeviceSerialNumber": "167006",
  "DwellTime": 2.1e-06,
  "EchoTime": 0.037,
  "EchoTrainLength": 104,
  "EffectiveEchoSpacing": 0.000560011,
  "FlipAngle": 52,
  "HeudiconvVersion": "0.5.3.post861+ge7d3c7f",
  "ImageComments": "Unaliased MB4/PE3/LB",
  "ImageOrientationPatientDICOM": [0.999758, -0.0206666, 0.007536, 0.0219894, 0.929449, -0.368293],
  "ImageOrientationText": "Tra>Cor(-21.6)>Sag(-0.0)",
  "ImageType": [
    "ORIGINAL",
    "PRIMARY",
    "M",
    "MB",
    "ND",
    "MOSAIC"
],
  "ImagingFrequency": 123.24993,
  "InPlanePhaseEncodingDirectionDICOM": "COL",
  "InstitutionAddress": "Chemin Queen-Mary 4565,Montreal,District,CA,H3W 1W5",
  "InstitutionName": "IUGM",
  "InstitutionalDepartmentName": "Department",
  "MRAcquisitionType": "2D",
  "MagneticFieldStrength": 3,
  "Manufacturer": "Siemens",
  "ManufacturersModelName": "Prisma_fit",
  "MatrixCoilMode": "SENSE",
  "Modality": "MR",
  "MultibandAccelerationFactor": 4,
  "NonlinearGradientCorrection": false,
  "PartialFourier": 1,
  "PatientPosition": "HFS",
  "PercentPhaseFOV": 100,
  "PercentSampling": 100,
  "PhaseEncodingDirection": "j",
  "PhaseEncodingSteps": 104,
  "PhaseResolution": 1,
  "PixelBandwidth": 2290,
  "ProcedureStepDescription": "localizers^retinotopy",
  "ProtocolName": "func_task-wedges",
  "PulseSequenceDetails": "%CustomerSeq%\\cmrr_mbep2d_bold",
  "ReceiveCoilActiveElements": "HC1-7;NC1,2",
  "ReceiveCoilName": "HeadNeck_64",
  "ReconMatrixPE": 104,
  "RepetitionTime": 1.49,
  "SAR": 0.0885765,
  "ScanOptions": "FS",
  "ScanningSequence": "EP",
  "SequenceName": "epfid2d1_104",
  "SequenceVariant": "SK\\SS",
  "SeriesDescription": "func_task-wedges",
  "SeriesNumber": 10,
  "ShimSetting": [586, -7286, -8829, 356, 41, -407, -31, 106],
  "SliceThickness": 2,
  "SliceTiming": [0, 0.7825, 0.0975, 0.88, 0.195, 0.98, 0.2925, 1.0775, 0.39, 1.175, 0.49, 1.2725, 0.5875, 1.37, 0.685, 0, 0.7825, 0.0975, 0.88, 0.195, 0.98, 0.2925, 1.0775, 0.39, 1.175, 0.49, 1.2725, 0.5875, 1.37, 0.685, 0, 0.7825, 0.0975, 0.88, 0.195, 0.98, 0.2925, 1.0775, 0.39, 1.175, 0.49, 1.2725, 0.5875, 1.37, 0.685, 0, 0.7825, 0.0975, 0.88, 0.195, 0.98, 0.2925, 1.0775, 0.39, 1.175, 0.49, 1.2725, 0.5875, 1.37, 0.685],
  "SoftwareVersions": "syngo MR E11",
  "SpacingBetweenSlices": 2,
  "StationName": "MRC35049",
  "TaskName": "wedges",
  "TotalReadoutTime": 0.0576811,
  "TxRefAmp": 324.264,
  "WipMemBlock": "aaf744c0-2e0f-46a0-a1f8-ee0d573fe5c0||Sequence: R017 ve11c/master r/75a17815+; Jun 28 2022 16:32:11 by eja",
  "dcmmeta_affine": [
    [-1.9995160102844238, 0.04397876560688019, -0.0012141130864620209, 102.61534118652344],
    [0.041333287954330444, 1.8588989973068237, -0.7367400527000427, -69.7616195678711],
    [0.01507200300693512, 0.73658686876297, 1.8593580722808838, -67.04850769042969],
    [0.0, 0.0, 0.0, 1.0]
],
  "dcmmeta_reorient_transform": [
    [0.0, -1.0, 0.0, 103.0],
    [1.0, 0.0, 0.0, 0.0],
    [0.0, 0.0, 1.0, 0.0],
    [0.0, 0.0, 0.0, 1.0]
],
  "dcmmeta_shape": [104, 104, 60, 202],
  "dcmmeta_slice_dim": 2,
  "dcmmeta_version": 0.6,
  "global": {
    "const": {
      "AcquisitionMatrix": [104, 0, 0, 104],
      "AngioFlag": "N",
      "BitsAllocated": 16,
      "BitsStored": 16,
      "BodyPartExamined": "BRAIN",
      "Columns": 832,
      "EchoNumbers": 1,
      "EchoTime": 37.0,
      "EchoTrainLength": 104,
      "FlipAngle": 52.0,
      "HighBit": 15,
      "ImageOrientationPatient": [0.99975801997173, -0.0206666442978, 0.00753600130514, 0.02198938345118, 0.92944952262913, -0.3682934317904],
      "ImagePositionPatient": [-850.97726232061, -783.29891551694, 271.45134869813],
      "ImageType": [
        "ORIGINAL",
        "PRIMARY",
        "M",
        "MB",
        "ND",
        "MOSAIC"
],
      "ImagedNucleus": "1H",
      "ImagingFrequency": 123.24993,
      "InPlanePhaseEncodingDirection": "COL",
      "MRAcquisitionType": "2D",
      "MagneticFieldStrength": 3.0,
      "Manufacturer": "SIEMENS",
      "ManufacturerModelName": "Prisma_fit",
      "Modality": "MR",
      "NumberOfAverages": 1.0,
      "NumberOfPhaseEncodingSteps": 104,
      "PercentPhaseFieldOfView": 100.0,
      "PercentSampling": 100.0,
      "PerformedProcedureStepStartTime": "194909.669000",
      "PhotometricInterpretation": "MONOCHROME2",
      "PixelBandwidth": 2290.0,
      "PixelRepresentation": 0,
      "PixelSpacing": [2.0, 2.0],
      "ProtocolName": "func_task-wedges",
      "RepetitionTime": 1490.0,
      "Rows": 832,
      "SAR": 0.08857651524623,
      "SamplesPerPixel": 1,
      "ScanOptions": "FS",
      "ScanningSequence": "EP",
      "SequenceName": "epfid2d1_104",
      "SequenceVariant": [
        "SK",
        "SS"
],
      "SeriesDescription": "func_task-wedges",
      "SeriesNumber": 10,
      "SeriesTime": "195506.375000",
      "SliceLocation": -36.697796729169,
      "SliceThickness": 2.0,
      "SmallestImagePixelValue": 0,
      "SoftwareVersions": "syngo MR E11",
      "SpacingBetweenSlices": 2.0000000020608,
      "SpecificCharacterSet": "ISO_IR 100",
      "StudyID": "1",
      "StudyTime": "194909.570000",
      "TransmitCoilName": "Body",
      "VariableFlipAngleFlag": "N",
      "WindowCenterWidthExplanation": "Algo1",
      "dBdt": 0.0},
    "slices": {}
  },
  "time": {
    "samples": {
      "AcquisitionNumber": [1, 2, 3, 4, 5, 6, 7, 8, 9, 10, 11, 12, 13, 14, 15, 16, 17, 18, 19, 20, 21, 22, 23, 24, 25, 26, 27, 28, 29, 30, 31, 32, 33, 34, 35, 36, 37, 38, 39, 40, 41, 42, 43, 44, 45, 46, 47, 48, 49, 50, 51, 52, 53, 54, 55, 56, 57, 58, 59, 60, 61, 62, 63, 64, 65, 66, 67, 68, 69, 70, 71, 72, 73, 74, 75, 76, 77, 78, 79, 80, 81, 82, 83, 84, 85, 86, 87, 88, 89, 90, 91, 92, 93, 94, 95, 96, 97, 98, 99, 100, 101, 102, 103, 104, 105, 106, 107, 108, 109, 110, 111, 112, 113, 114, 115, 116, 117, 118, 119, 120, 121, 122, 123, 124, 125, 126, 127, 128, 129, 130, 131, 132, 133, 134, 135, 136, 137, 138, 139, 140, 141, 142, 143, 144, 145, 146, 147, 148, 149, 150, 151, 152, 153, 154, 155, 156, 157, 158, 159, 160, 161, 162, 163, 164, 165, 166, 167, 168, 169, 170, 171, 172, 173, 174, 175, 176, 177, 178, 179, 180, 181, 182, 183, 184, 185, 186, 187, 188, 189, 190, 191, 192, 193, 194, 195, 196, 197, 198, 199, 200, 201, 202],
      "AcquisitionTime": ["195344.252500", "195345.742500", "195347.232500", "195348.722500", "195350.212500", "195351.702500", "195353.192500", "195354.682500", "195356.172500", "195357.662500", "195359.152500", "195400.642500", "195402.132500", "195403.622500", "195405.112500", "195406.602500", "195408.092500", "195409.582500", "195411.072500", "195412.562500", "195414.052500", "195415.542500", "195417.032500", "195418.522500", "195420.012500", "195421.502500", "195422.992500", "195424.482500", "195425.972500", "195427.462500", "195428.952500", "195430.442500", "195431.932500", "195433.422500", "195434.912500", "195436.402500", "195437.892500", "195439.382500", "195440.872500", "195442.362500", "195443.852500", "195445.342500", "195446.832500", "195448.322500", "195449.812500", "195451.302500", "195452.792500", "195454.282500", "195455.772500", "195457.262500", "195458.752500", "195500.242500", "195501.732500", "195503.222500", "195504.712500", "195506.202500", "195507.692500", "195509.182500", "195510.672500", "195512.162500", "195513.652500", "195515.142500", "195516.632500", "195518.122500", "195519.612500", "195521.102500", "195522.592500", "195524.082500", "195525.572500", "195527.062500", "195528.552500", "195530.042500", "195531.532500", "195533.022500", "195534.512500", "195536.002500", "195537.492500", "195538.982500", "195540.472500", "195541.962500", "195543.452500", "195544.942500", "195546.432500", "195547.922500", "195549.412500", "195550.902500", "195552.392500", "195553.882500", "195555.372500", "195556.862500", "195558.352500", "195559.842500", "195601.332500", "195602.822500", "195604.312500", "195605.802500", "195607.292500", "195608.782500", "195610.272500", "195611.762500", "195613.252500", "195614.742500", "195616.232500", "195617.722500", "195619.212500", "195620.702500", "195622.192500", "195623.682500", "195625.172500", "195626.662500", "195628.152500", "195629.642500", "195631.132500", "195632.622500", "195634.112500", "195635.602500", "195637.092500", "195638.582500", "195640.072500", "195641.562500", "195643.052500", "195644.542500", "195646.032500", "195647.522500", "195649.012500", "195650.502500", "195651.992500", "195653.482500", "195654.972500", "195656.462500", "195657.952500", "195659.442500", "195700.932500", "195702.422500", "195703.912500", "195705.402500", "195706.892500", "195708.382500", "195709.872500", "195711.362500", "195712.852500", "195714.342500", "195715.832500", "195717.322500", "195718.812500", "195720.302500", "195721.792500", "195723.282500", "195724.772500", "195726.262500", "195727.752500", "195729.242500", "195730.732500", "195732.222500", "195733.712500", "195735.202500", "195736.692500", "195738.182500", "195739.672500", "195741.162500", "195742.652500", "195744.142500", "195745.632500", "195747.122500", "195748.612500", "195750.102500", "195751.592500", "195753.082500", "195754.572500", "195756.062500", "195757.552500", "195759.042500", "195800.532500", "195802.022500", "195803.512500", "195805.002500", "195806.492500", "195807.982500", "195809.472500", "195810.962500", "195812.452500", "195813.942500", "195815.432500", "195816.922500", "195818.412500", "195819.902500", "195821.392500", "195822.882500", "195824.372500", "195825.862500", "195827.352500", "195828.842500", "195830.332500", "195831.822500", "195833.312500", "195834.802500", "195836.292500", "195837.782500", "195839.272500", "195840.762500", "195842.252500", "195843.742500"],
      "ContentTime": ["195506.379000", "195506.383000", "195506.386000", "195506.390000", "195506.393000", "195506.396000", "195506.399000", "195506.403000", "195506.406000", "195506.409000", "195506.412000", "195506.416000", "195506.419000", "195506.422000", "195506.426000", "195506.429000", "195506.432000", "195506.435000", "195506.439000", "195506.442000", "195506.445000", "195506.448000", "195506.452000", "195506.455000", "195506.462000", "195506.465000", "195506.468000", "195506.472000", "195506.475000", "195506.478000", "195506.481000", "195506.485000", "195506.488000", "195506.491000", "195506.494000", "195526.332000", "195526.336000", "195526.339000", "195526.342000", "195526.346000", "195526.349000", "195526.352000", "195526.355000", "195526.359000", "195526.362000", "195526.365000", "195526.368000", "195526.372000", "195526.375000", "195526.378000", "195526.382000", "195526.385000", "195526.388000", "195526.392000", "195526.395000", "195526.398000", "195546.332000", "195546.336000", "195546.339000", "195546.342000", "195546.350000", "195546.353000", "195546.356000", "195546.360000", "195546.363000", "195546.367000", "195546.370000", "195546.373000", "195546.377000", "195546.381000", "195546.384000", "195546.387000", "195546.391000", "195546.394000", "195546.397000", "195546.401000", "195606.332000", "195606.490000", "195606.494000", "195606.497000", "195606.500000", "195606.503000", "195606.515000", "195606.518000", "195606.538000", "195606.541000", "195606.546000", "195606.549000", "195606.552000", "195606.556000", "195606.559000", "195606.563000", "195606.566000", "195606.569000", "195606.573000", "195606.576000", "195646.332000", "195646.336000", "195646.345000", "195646.349000", "195646.352000", "195646.356000", "195646.359000", "195646.362000", "195646.366000", "195646.369000", "195646.373000", "195646.376000", "195646.379000", "195646.383000", "195646.386000", "195646.389000", "195646.393000", "195646.396000", "195646.399000", "195646.402000", "195646.406000", "195646.409000", "195646.412000", "195646.415000", "195646.419000", "195646.422000", "195646.425000", "195726.332000", "195726.336000", "195726.339000", "195726.342000", "195726.346000", "195726.349000", "195726.352000", "195726.355000", "195726.359000", "195726.362000", "195726.365000", "195726.368000", "195726.372000", "195726.375000", "195726.378000", "195726.382000", "195726.385000", "195726.388000", "195726.392000", "195726.395000", "195726.398000", "195726.402000", "195726.405000", "195726.409000", "195726.412000", "195726.415000", "195726.418000", "195806.332000", "195806.336000", "195806.339000", "195806.343000", "195806.346000", "195806.349000", "195806.352000", "195806.356000", "195806.359000", "195806.362000", "195806.365000", "195806.369000", "195806.372000", "195806.375000", "195806.379000", "195806.382000", "195806.385000", "195806.389000", "195806.392000", "195806.395000", "195806.398000", "195806.402000", "195806.405000", "195806.408000", "195806.412000", "195806.420000", "195806.423000", "195843.186000", "195843.190000", "195843.200000", "195843.203000", "195843.207000", "195843.210000", "195843.214000", "195843.218000", "195843.221000", "195843.225000", "195843.228000", "195843.232000", "195843.235000", "195843.239000", "195843.243000", "195843.247000", "195843.250000", "195843.253000", "195843.257000", "195843.260000", "195843.264000", "195843.267000", "195843.270000", "195843.274000", "195843.277000"],
      "InstanceCreationTime": ["195506.379000", "195506.383000", "195506.386000", "195506.390000", "195506.393000", "195506.396000", "195506.399000", "195506.403000", "195506.406000", "195506.409000", "195506.412000", "195506.416000", "195506.419000", "195506.422000", "195506.426000", "195506.429000", "195506.432000", "195506.435000", "195506.439000", "195506.442000", "195506.445000", "195506.448000", "195506.452000", "195506.455000", "195506.462000", "195506.465000", "195506.468000", "195506.472000", "195506.475000", "195506.478000", "195506.481000", "195506.485000", "195506.488000", "195506.491000", "195506.494000", "195526.332000", "195526.336000", "195526.339000", "195526.342000", "195526.346000", "195526.349000", "195526.352000", "195526.355000", "195526.359000", "195526.362000", "195526.365000", "195526.368000", "195526.372000", "195526.375000", "195526.378000", "195526.382000", "195526.385000", "195526.388000", "195526.392000", "195526.395000", "195526.398000", "195546.332000", "195546.336000", "195546.339000", "195546.342000", "195546.350000", "195546.353000", "195546.356000", "195546.360000", "195546.363000", "195546.367000", "195546.370000", "195546.373000", "195546.377000", "195546.381000", "195546.384000", "195546.387000", "195546.391000", "195546.394000", "195546.397000", "195546.401000", "195606.332000", "195606.490000", "195606.494000", "195606.497000", "195606.500000", "195606.503000", "195606.515000", "195606.518000", "195606.538000", "195606.541000", "195606.546000", "195606.549000", "195606.552000", "195606.556000", "195606.559000", "195606.563000", "195606.566000", "195606.569000", "195606.573000", "195606.576000", "195646.332000", "195646.336000", "195646.345000", "195646.349000", "195646.352000", "195646.356000", "195646.359000", "195646.362000", "195646.366000", "195646.369000", "195646.373000", "195646.376000", "195646.379000", "195646.383000", "195646.386000", "195646.389000", "195646.393000", "195646.396000", "195646.399000", "195646.402000", "195646.406000", "195646.409000", "195646.412000", "195646.415000", "195646.419000", "195646.422000", "195646.425000", "195726.332000", "195726.336000", "195726.339000", "195726.342000", "195726.346000", "195726.349000", "195726.352000", "195726.355000", "195726.359000", "195726.362000", "195726.365000", "195726.368000", "195726.372000", "195726.375000", "195726.378000", "195726.382000", "195726.385000", "195726.388000", "195726.392000", "195726.395000", "195726.398000", "195726.402000", "195726.405000", "195726.409000", "195726.412000", "195726.415000", "195726.418000", "195806.332000", "195806.336000", "195806.339000", "195806.343000", "195806.346000", "195806.349000", "195806.352000", "195806.356000", "195806.359000", "195806.362000", "195806.365000", "195806.369000", "195806.372000", "195806.375000", "195806.379000", "195806.382000", "195806.385000", "195806.389000", "195806.392000", "195806.395000", "195806.398000", "195806.402000", "195806.405000", "195806.408000", "195806.412000", "195806.420000", "195806.423000", "195843.186000", "195843.190000", "195843.200000", "195843.203000", "195843.207000", "195843.210000", "195843.214000", "195843.218000", "195843.221000", "195843.225000", "195843.228000", "195843.232000", "195843.235000", "195843.239000", "195843.243000", "195843.247000", "195843.250000", "195843.253000", "195843.257000", "195843.260000", "195843.264000", "195843.267000", "195843.270000", "195843.274000", "195843.277000"],
      "InstanceNumber": [1, 2, 3, 4, 5, 6, 7, 8, 9, 10, 11, 12, 13, 14, 15, 16, 17, 18, 19, 20, 21, 22, 23, 24, 25, 26, 27, 28, 29, 30, 31, 32, 33, 34, 35, 36, 37, 38, 39, 40, 41, 42, 43, 44, 45, 46, 47, 48, 49, 50, 51, 52, 53, 54, 55, 56, 57, 58, 59, 60, 61, 62, 63, 64, 65, 66, 67, 68, 69, 70, 71, 72, 73, 74, 75, 76, 77, 78, 79, 80, 81, 82, 83, 84, 85, 86, 87, 88, 89, 90, 91, 92, 93, 94, 95, 96, 97, 98, 99, 100, 101, 102, 103, 104, 105, 106, 107, 108, 109, 110, 111, 112, 113, 114, 115, 116, 117, 118, 119, 120, 121, 122, 123, 124, 125, 126, 127, 128, 129, 130, 131, 132, 133, 134, 135, 136, 137, 138, 139, 140, 141, 142, 143, 144, 145, 146, 147, 148, 149, 150, 151, 152, 153, 154, 155, 156, 157, 158, 159, 160, 161, 162, 163, 164, 165, 166, 167, 168, 169, 170, 171, 172, 173, 174, 175, 176, 177, 178, 179, 180, 181, 182, 183, 184, 185, 186, 187, 188, 189, 190, 191, 192, 193, 194, 195, 196, 197, 198, 199, 200, 201, 202],
      "LargestImagePixelValue": [58746, 57729, 58146, 56689, 55554, 54998, 55577, 54486, 54913, 55418, 56373, 56381, 56321, 55937, 56132, 56405, 55986, 55452, 55901, 56694, 56098, 55929, 55456, 55705, 56254, 54574, 54087, 54265, 54227, 53955, 53992, 54233, 54088, 55190, 54587, 54475, 54592, 54326, 54387, 53716, 55319, 54516, 54712, 54590, 54387, 54851, 54201, 54055, 55125, 54543, 55193, 54696, 54765, 54778, 55682, 55329, 55184, 55167, 54148, 54612, 55527, 54422, 54312, 54536, 54356, 53873, 53945, 54031, 53275, 53049, 53471, 53151, 53009, 52708, 52698, 53125, 53609, 54520, 53157, 53169, 53497, 52809, 52906, 53004, 52724, 52614, 52131, 51898, 52007, 51653, 51939, 51995, 52445, 52451, 52128, 52562, 52049, 52138, 51946, 52195, 52265, 51992, 52655, 51921, 52755, 52809, 52175, 52287, 52380, 52388, 52880, 52137, 52748, 52794, 53310, 54698, 55502, 53545, 53072, 52135, 52171, 52534, 52544, 52949, 52597, 52978, 53061, 53227, 53467, 53475, 53171, 53964, 53857, 53419, 53237, 53665, 54017, 53912, 54245, 54269, 53726, 53662, 53609, 53742, 53880, 53972, 53754, 54071, 54240, 53897, 53909, 54439, 53962, 54347, 54255, 54328, 54172, 54518, 54441, 54072, 53698, 53881, 54097, 54185, 54226, 54607, 54388, 54458, 54891, 54825, 54784, 55227, 54764, 54813, 54581, 54643, 54867, 54984, 54832, 54990, 55028, 54720, 53607, 53235, 53144, 52914, 53636, 53419, 54201, 54362, 54396, 54359, 54553, 54542, 54350, 54396, 54049, 54350, 53812, 54496, 53707, 54235],
      "WindowCenter": [10838.0, 10779.0, 10766.0, 10735.0, 10695.0, 10686.0, 10691.0, 10700.0, 10701.0, 10688.0, 10681.0, 10671.0, 10663.0, 10668.0, 10676.0, 10678.0, 10671.0, 10663.0, 10669.0, 10690.0, 10710.0, 10719.0, 10722.0, 10739.0, 10728.0, 10715.0, 10709.0, 10714.0, 10718.0, 10705.0, 10683.0, 10665.0, 10659.0, 10662.0, 10656.0, 10657.0, 10664.0, 10667.0, 10674.0, 10671.0, 10685.0, 10682.0, 10694.0, 10705.0, 10707.0, 10705.0, 10693.0, 10683.0, 10685.0, 10679.0, 10679.0, 10672.0, 10664.0, 10668.0, 10680.0, 10689.0, 10686.0, 10700.0, 10699.0, 10691.0, 10687.0, 10673.0, 10675.0, 10696.0, 10708.0, 10704.0, 10688.0, 10669.0, 10634.0, 10630.0, 10651.0, 10676.0, 10681.0, 10684.0, 10676.0, 10668.0, 10685.0, 10684.0, 10684.0, 10684.0, 10682.0, 10662.0, 10645.0, 10654.0, 10673.0, 10689.0, 10699.0, 10687.0, 10674.0, 10659.0, 10658.0, 10673.0, 10689.0, 10691.0, 10686.0, 10692.0, 10670.0, 10690.0, 10686.0, 10682.0, 10668.0, 10651.0, 10644.0, 10630.0, 10643.0, 10657.0, 10655.0, 10654.0, 10662.0, 10676.0, 10677.0, 10673.0, 10668.0, 10660.0, 10676.0, 10705.0, 10710.0, 10680.0, 10664.0, 10644.0, 10638.0, 10632.0, 10620.0, 10602.0, 10587.0, 10604.0, 10622.0, 10634.0, 10650.0, 10666.0, 10675.0, 10689.0, 10696.0, 10694.0, 10709.0, 10723.0, 10730.0, 10718.0, 10708.0, 10698.0, 10697.0, 10697.0, 10683.0, 10668.0, 10665.0, 10673.0, 10695.0, 10707.0, 10713.0, 10701.0, 10693.0, 10695.0, 10704.0, 10720.0, 10722.0, 10721.0, 10707.0, 10704.0, 10694.0, 10687.0, 10689.0, 10696.0, 10706.0, 10699.0, 10683.0, 10679.0, 10678.0, 10687.0, 10692.0, 10694.0, 10699.0, 10700.0, 10695.0, 10702.0, 10709.0, 10704.0, 10696.0, 10699.0, 10687.0, 10685.0, 10684.0, 10692.0, 10692.0, 10671.0, 10663.0, 10653.0, 10654.0, 10639.0, 10638.0, 10651.0, 10653.0, 10656.0, 10653.0, 10645.0, 10636.0, 10635.0, 10643.0, 10657.0, 10675.0, 10685.0, 10695.0, 10689.0],
      "WindowWidth": [23611.0, 23428.0, 23369.0, 23286.0, 23182.0, 23158.0, 23164.0, 23186.0, 23187.0, 23153.0, 23133.0, 23109.0, 23090.0, 23100.0, 23116.0, 23124.0, 23108.0, 23089.0, 23102.0, 23150.0, 23199.0, 23222.0, 23230.0, 23274.0, 23241.0, 23216.0, 23204.0, 23217.0, 23225.0, 23199.0, 23151.0, 23106.0, 23089.0, 23092.0, 23082.0, 23084.0, 23098.0, 23108.0, 23125.0, 23122.0, 23148.0, 23142.0, 23167.0, 23191.0, 23199.0, 23194.0, 23167.0, 23145.0, 23145.0, 23134.0, 23133.0, 23119.0, 23098.0, 23107.0, 23132.0, 23153.0, 23147.0, 23178.0, 23179.0, 23163.0, 23151.0, 23120.0, 23126.0, 23174.0, 23203.0, 23197.0, 23158.0, 23112.0, 23039.0, 23027.0, 23076.0, 23130.0, 23144.0, 23149.0, 23133.0, 23113.0, 23151.0, 23147.0, 23148.0, 23150.0, 23145.0, 23103.0, 23063.0, 23081.0, 23125.0, 23168.0, 23191.0, 23165.0, 23132.0, 23100.0, 23100.0, 23131.0, 23169.0, 23174.0, 23161.0, 23175.0, 23123.0, 23168.0, 23160.0, 23150.0, 23116.0, 23079.0, 23059.0, 23030.0, 23059.0, 23089.0, 23088.0, 23084.0, 23101.0, 23133.0, 23137.0, 23127.0, 23112.0, 23097.0, 23132.0, 23195.0, 23205.0, 23136.0, 23099.0, 23055.0, 23041.0, 23027.0, 23000.0, 22957.0, 22927.0, 22961.0, 23006.0, 23036.0, 23071.0, 23107.0, 23128.0, 23160.0, 23174.0, 23172.0, 23204.0, 23237.0, 23253.0, 23227.0, 23200.0, 23177.0, 23174.0, 23173.0, 23143.0, 23110.0, 23102.0, 23118.0, 23169.0, 23199.0, 23212.0, 23188.0, 23167.0, 23170.0, 23191.0, 23228.0, 23234.0, 23230.0, 23199.0, 23190.0, 23169.0, 23154.0, 23158.0, 23172.0, 23194.0, 23180.0, 23145.0, 23134.0, 23131.0, 23154.0, 23165.0, 23168.0, 23180.0, 23184.0, 23173.0, 23188.0, 23200.0, 23189.0, 23173.0, 23176.0, 23151.0, 23146.0, 23145.0, 23164.0, 23167.0, 23119.0, 23096.0, 23074.0, 23072.0, 23039.0, 23037.0, 23065.0, 23073.0, 23078.0, 23069.0, 23050.0, 23030.0, 23026.0, 23047.0, 23075.0, 23118.0, 23143.0, 23168.0, 23155.0]
    },
    "slices": {}
  }
}