{
  "AcquisitionMatrixPE": 104,
  "AcquisitionNumber": 1,
  "AcquisitionTime": "20:06:12.402500",
  "BandwidthPerPixelPhaseEncode": 17.17,
  "BaseResolution": 104,
  "BodyPartExamined": "BRAIN",
  "CoilCombinationMethod": "Sum of Squares",
  "ConsistencyInfo": "N4_VE11C_LATEST_20160120",
  "ConversionSoftware": "dcm2niix",
  "ConversionSoftwareVersion": "v1.0.20230411",
  "DerivedVendorReportedEchoSpacing": 0.000560011,
  "DeviceSerialNumber": "167006",
  "DwellTime": 2.1e-06,
  "EchoTime": 0.037,
  "EchoTrainLength": 104,
  "EffectiveEchoSpacing": 0.000560011,
  "FlipAngle": 52,
  "HeudiconvVersion": "0.5.3.post861+ge7d3c7f",
  "ImageComments": "Unaliased MB4/PE3/LB",
  "ImageOrientationPatientDICOM": [0.999758, -0.0206666, 0.007536, 0.0219894, 0.929449, -0.368293],
  "ImageOrientationText": "Tra>Cor(-21.6)>Sag(-0.0)",
  "ImageType": [
    "ORIGINAL",
    "PRIMARY",
    "M",
    "MB",
    "ND",
    "MOSAIC"
],
  "ImagingFrequency": 123.249933,
  "InPlanePhaseEncodingDirectionDICOM": "COL",
  "InstitutionAddress": "Chemin Queen-Mary 4565,Montreal,District,CA,H3W 1W5",
  "InstitutionName": "IUGM",
  "InstitutionalDepartmentName": "Department",
  "MRAcquisitionType": "2D",
  "MagneticFieldStrength": 3,
  "Manufacturer": "Siemens",
  "ManufacturersModelName": "Prisma_fit",
  "MatrixCoilMode": "SENSE",
  "Modality": "MR",
  "MultibandAccelerationFactor": 4,
  "NonlinearGradientCorrection": false,
  "PartialFourier": 1,
  "PatientPosition": "HFS",
  "PercentPhaseFOV": 100,
  "PercentSampling": 100,
  "PhaseEncodingDirection": "j",
  "PhaseEncodingSteps": 104,
  "PhaseResolution": 1,
  "PixelBandwidth": 2290,
  "ProcedureStepDescription": "localizers^retinotopy",
  "ProtocolName": "func_task-bars",
  "PulseSequenceDetails": "%CustomerSeq%\\cmrr_mbep2d_bold",
  "ReceiveCoilActiveElements": "HC1-7;NC1,2",
  "ReceiveCoilName": "HeadNeck_64",
  "ReconMatrixPE": 104,
  "RepetitionTime": 1.49,
  "SAR": 0.0885765,
  "ScanOptions": "FS",
  "ScanningSequence": "EP",
  "SequenceName": "epfid2d1_104",
  "SequenceVariant": "SK\\SS",
  "SeriesDescription": "func_task-bars",
  "SeriesNumber": 16,
  "ShimSetting": [586, -7286, -8829, 356, 41, -407, -31, 106],
  "SliceThickness": 2,
  "SliceTiming": [0, 0.785, 0.1, 0.8825, 0.1975, 0.98, 0.295, 1.08, 0.3925, 1.1775, 0.49, 1.275, 0.59, 1.3725, 0.6875, 0, 0.785, 0.1, 0.8825, 0.1975, 0.98, 0.295, 1.08, 0.3925, 1.1775, 0.49, 1.275, 0.59, 1.3725, 0.6875, 0, 0.785, 0.1, 0.8825, 0.1975, 0.98, 0.295, 1.08, 0.3925, 1.1775, 0.49, 1.275, 0.59, 1.3725, 0.6875, 0, 0.785, 0.1, 0.8825, 0.1975, 0.98, 0.295, 1.08, 0.3925, 1.1775, 0.49, 1.275, 0.59, 1.3725, 0.6875],
  "SoftwareVersions": "syngo MR E11",
  "SpacingBetweenSlices": 2,
  "StationName": "MRC35049",
  "TaskName": "bars",
  "TotalReadoutTime": 0.0576811,
  "TxRefAmp": 324.264,
  "WipMemBlock": "2e7a3c68-ccce-4e3c-b537-5f096fbc80ec||Sequence: R017 ve11c/master r/75a17815+; Jun 28 2022 16:32:11 by eja",
  "dcmmeta_affine": [
    [-1.9995160102844238, 0.04397876560688019, -0.0012141130864620209, 102.61534118652344],
    [0.041333287954330444, 1.8588989973068237, -0.7367400527000427, -69.7616195678711],
    [0.01507200300693512, 0.73658686876297, 1.8593580722808838, -67.04850769042969],
    [0.0, 0.0, 0.0, 1.0]
],
  "dcmmeta_reorient_transform": [
    [0.0, -1.0, 0.0, 103.0],
    [1.0, 0.0, 0.0, 0.0],
    [0.0, 0.0, 1.0, 0.0],
    [0.0, 0.0, 0.0, 1.0]
],
  "dcmmeta_shape": [104, 104, 60, 202],
  "dcmmeta_slice_dim": 2,
  "dcmmeta_version": 0.6,
  "global": {
    "const": {
      "AcquisitionMatrix": [104, 0, 0, 104],
      "AngioFlag": "N",
      "BitsAllocated": 16,
      "BitsStored": 16,
      "BodyPartExamined": "BRAIN",
      "Columns": 832,
      "EchoNumbers": 1,
      "EchoTime": 37.0,
      "EchoTrainLength": 104,
      "FlipAngle": 52.0,
      "HighBit": 15,
      "ImageOrientationPatient": [0.99975801997173, -0.0206666442978, 0.00753600130514, 0.02198938345118, 0.92944952262913, -0.3682934317904],
      "ImagePositionPatient": [-850.97726232061, -783.29891551694, 271.45134869813],
      "ImageType": [
        "ORIGINAL",
        "PRIMARY",
        "M",
        "MB",
        "ND",
        "MOSAIC"
],
      "ImagedNucleus": "1H",
      "ImagingFrequency": 123.249933,
      "InPlanePhaseEncodingDirection": "COL",
      "MRAcquisitionType": "2D",
      "MagneticFieldStrength": 3.0,
      "Manufacturer": "SIEMENS",
      "ManufacturerModelName": "Prisma_fit",
      "Modality": "MR",
      "NumberOfAverages": 1.0,
      "NumberOfPhaseEncodingSteps": 104,
      "PercentPhaseFieldOfView": 100.0,
      "PercentSampling": 100.0,
      "PerformedProcedureStepStartTime": "194909.669000",
      "PhotometricInterpretation": "MONOCHROME2",
      "PixelBandwidth": 2290.0,
      "PixelRepresentation": 0,
      "PixelSpacing": [2.0, 2.0],
      "ProtocolName": "func_task-bars",
      "RepetitionTime": 1490.0,
      "Rows": 832,
      "SAR": 0.08857651524623,
      "SamplesPerPixel": 1,
      "ScanOptions": "FS",
      "ScanningSequence": "EP",
      "SequenceName": "epfid2d1_104",
      "SequenceVariant": [
        "SK",
        "SS"
],
      "SeriesDescription": "func_task-bars",
      "SeriesNumber": 16,
      "SeriesTime": "200723.221000",
      "SliceLocation": -36.697796729169,
      "SliceThickness": 2.0,
      "SmallestImagePixelValue": 0,
      "SoftwareVersions": "syngo MR E11",
      "SpacingBetweenSlices": 2.0000000020608,
      "SpecificCharacterSet": "ISO_IR 100",
      "StudyID": "1",
      "StudyTime": "194909.570000",
      "TransmitCoilName": "Body",
      "VariableFlipAngleFlag": "N",
      "WindowCenterWidthExplanation": "Algo1",
      "dBdt": 0.0},
    "slices": {}
  },
  "time": {
    "samples": {
      "AcquisitionNumber": [1, 2, 3, 4, 5, 6, 7, 8, 9, 10, 11, 12, 13, 14, 15, 16, 17, 18, 19, 20, 21, 22, 23, 24, 25, 26, 27, 28, 29, 30, 31, 32, 33, 34, 35, 36, 37, 38, 39, 40, 41, 42, 43, 44, 45, 46, 47, 48, 49, 50, 51, 52, 53, 54, 55, 56, 57, 58, 59, 60, 61, 62, 63, 64, 65, 66, 67, 68, 69, 70, 71, 72, 73, 74, 75, 76, 77, 78, 79, 80, 81, 82, 83, 84, 85, 86, 87, 88, 89, 90, 91, 92, 93, 94, 95, 96, 97, 98, 99, 100, 101, 102, 103, 104, 105, 106, 107, 108, 109, 110, 111, 112, 113, 114, 115, 116, 117, 118, 119, 120, 121, 122, 123, 124, 125, 126, 127, 128, 129, 130, 131, 132, 133, 134, 135, 136, 137, 138, 139, 140, 141, 142, 143, 144, 145, 146, 147, 148, 149, 150, 151, 152, 153, 154, 155, 156, 157, 158, 159, 160, 161, 162, 163, 164, 165, 166, 167, 168, 169, 170, 171, 172, 173, 174, 175, 176, 177, 178, 179, 180, 181, 182, 183, 184, 185, 186, 187, 188, 189, 190, 191, 192, 193, 194, 195, 196, 197, 198, 199, 200, 201, 202],
      "AcquisitionTime": ["200612.402500", "200613.892500", "200615.382500", "200616.872500", "200618.362500", "200619.852500", "200621.342500", "200622.832500", "200624.322500", "200625.812500", "200627.302500", "200628.792500", "200630.282500", "200631.772500", "200633.262500", "200634.752500", "200636.242500", "200637.732500", "200639.222500", "200640.712500", "200642.202500", "200643.692500", "200645.182500", "200646.672500", "200648.162500", "200649.652500", "200651.142500", "200652.632500", "200654.122500", "200655.612500", "200657.102500", "200658.592500", "200700.082500", "200701.572500", "200703.062500", "200704.552500", "200706.042500", "200707.532500", "200709.022500", "200710.512500", "200712.002500", "200713.492500", "200714.982500", "200716.472500", "200717.962500", "200719.452500", "200720.942500", "200722.432500", "200723.922500", "200725.412500", "200726.902500", "200728.392500", "200729.882500", "200731.372500", "200732.862500", "200734.352500", "200735.842500", "200737.332500", "200738.822500", "200740.312500", "200741.802500", "200743.292500", "200744.782500", "200746.272500", "200747.762500", "200749.252500", "200750.742500", "200752.232500", "200753.722500", "200755.212500", "200756.702500", "200758.192500", "200759.682500", "200801.172500", "200802.662500", "200804.152500", "200805.642500", "200807.132500", "200808.622500", "200810.112500", "200811.602500", "200813.092500", "200814.582500", "200816.072500", "200817.562500", "200819.052500", "200820.542500", "200822.032500", "200823.522500", "200825.012500", "200826.502500", "200827.992500", "200829.482500", "200830.972500", "200832.462500", "200833.952500", "200835.442500", "200836.932500", "200838.422500", "200839.912500", "200841.402500", "200842.892500", "200844.382500", "200845.872500", "200847.362500", "200848.852500", "200850.342500", "200851.832500", "200853.322500", "200854.812500", "200856.302500", "200857.792500", "200859.282500", "200900.772500", "200902.262500", "200903.752500", "200905.242500", "200906.732500", "200908.222500", "200909.712500", "200911.202500", "200912.692500", "200914.182500", "200915.672500", "200917.162500", "200918.652500", "200920.142500", "200921.632500", "200923.122500", "200924.612500", "200926.102500", "200927.592500", "200929.082500", "200930.572500", "200932.062500", "200933.552500", "200935.042500", "200936.532500", "200938.022500", "200939.512500", "200941.002500", "200942.492500", "200943.982500", "200945.472500", "200946.962500", "200948.452500", "200949.942500", "200951.432500", "200952.922500", "200954.412500", "200955.902500", "200957.392500", "200958.882500", "201000.372500", "201001.862500", "201003.352500", "201004.842500", "201006.332500", "201007.822500", "201009.312500", "201010.802500", "201012.292500", "201013.782500", "201015.272500", "201016.762500", "201018.252500", "201019.742500", "201021.232500", "201022.722500", "201024.212500", "201025.702500", "201027.192500", "201028.682500", "201030.172500", "201031.662500", "201033.152500", "201034.642500", "201036.132500", "201037.622500", "201039.112500", "201040.602500", "201042.092500", "201043.582500", "201045.072500", "201046.562500", "201048.052500", "201049.542500", "201051.032500", "201052.522500", "201054.012500", "201055.502500", "201056.992500", "201058.482500", "201059.972500", "201101.462500", "201102.952500", "201104.442500", "201105.932500", "201107.422500", "201108.912500", "201110.402500", "201111.892500"],
      "ContentTime": ["200723.224000", "200723.228000", "200723.232000", "200723.235000", "200723.238000", "200723.241000", "200723.253000", "200723.257000", "200723.260000", "200723.263000", "200723.267000", "200723.270000", "200723.273000", "200723.277000", "200723.280000", "200723.284000", "200723.287000", "200723.290000", "200723.294000", "200723.297000", "200723.300000", "200723.304000", "200723.307000", "200723.310000", "200723.314000", "200743.183000", "200743.187000", "200743.190000", "200743.193000", "200743.197000", "200743.200000", "200743.203000", "200743.206000", "200743.210000", "200743.213000", "200743.217000", "200743.220000", "200743.224000", "200743.227000", "200743.230000", "200743.233000", "200743.237000", "200743.240000", "200743.243000", "200743.246000", "200803.183000", "200803.187000", "200803.190000", "200803.195000", "200803.200000", "200803.204000", "200803.208000", "200803.211000", "200803.214000", "200803.218000", "200803.221000", "200803.224000", "200803.227000", "200803.231000", "200803.234000", "200803.237000", "200803.241000", "200803.244000", "200803.247000", "200803.250000", "200823.183000", "200823.187000", "200823.190000", "200823.193000", "200823.197000", "200823.200000", "200823.203000", "200823.207000", "200823.210000", "200823.213000", "200823.216000", "200823.220000", "200823.223000", "200823.226000", "200823.229000", "200823.233000", "200823.236000", "200823.239000", "200823.242000", "200823.246000", "200823.249000", "200903.183000", "200903.187000", "200903.190000", "200903.194000", "200903.197000", "200903.200000", "200903.204000", "200903.207000", "200903.210000", "200903.213000", "200903.217000", "200903.220000", "200903.223000", "200903.230000", "200903.234000", "200903.237000", "200903.240000", "200903.244000", "200903.247000", "200903.250000", "200903.253000", "200903.257000", "200903.260000", "200903.263000", "200903.266000", "200903.270000", "200903.273000", "200903.276000", "200903.280000", "200903.283000", "200943.183000", "200943.187000", "200943.190000", "200943.194000", "200943.197000", "200943.200000", "200943.204000", "200943.207000", "200943.210000", "200943.214000", "200943.217000", "200943.220000", "200943.223000", "200943.227000", "200943.230000", "200943.233000", "200943.237000", "200943.240000", "200943.243000", "200943.247000", "200943.250000", "200943.253000", "200943.256000", "200943.260000", "200943.263000", "200943.266000", "200943.270000", "201023.183000", "201023.187000", "201023.191000", "201023.194000", "201023.197000", "201023.201000", "201023.205000", "201023.209000", "201023.213000", "201023.216000", "201023.220000", "201023.223000", "201023.226000", "201023.230000", "201023.233000", "201023.236000", "201023.239000", "201023.243000", "201023.246000", "201023.249000", "201023.259000", "201023.263000", "201023.266000", "201023.269000", "201023.272000", "201023.276000", "201103.183000", "201103.187000", "201103.190000", "201103.194000", "201103.197000", "201103.200000", "201103.213000", "201103.217000", "201103.220000", "201103.223000", "201103.227000", "201103.230000", "201103.233000", "201103.237000", "201103.240000", "201103.243000", "201103.247000", "201103.250000", "201103.253000", "201103.256000", "201103.259000", "201103.263000", "201103.266000", "201103.269000", "201103.273000", "201103.276000", "201103.279000", "201110.962000", "201110.965000", "201110.969000", "201110.972000", "201110.976000", "201110.979000"],
      "InstanceCreationTime": ["200723.224000", "200723.228000", "200723.232000", "200723.235000", "200723.238000", "200723.241000", "200723.253000", "200723.257000", "200723.260000", "200723.263000", "200723.267000", "200723.270000", "200723.273000", "200723.277000", "200723.280000", "200723.284000", "200723.287000", "200723.290000", "200723.294000", "200723.297000", "200723.300000", "200723.304000", "200723.307000", "200723.310000", "200723.314000", "200743.183000", "200743.187000", "200743.190000", "200743.193000", "200743.197000", "200743.200000", "200743.203000", "200743.206000", "200743.210000", "200743.213000", "200743.217000", "200743.220000", "200743.224000", "200743.227000", "200743.230000", "200743.233000", "200743.237000", "200743.240000", "200743.243000", "200743.246000", "200803.183000", "200803.187000", "200803.190000", "200803.195000", "200803.200000", "200803.204000", "200803.208000", "200803.211000", "200803.214000", "200803.218000", "200803.221000", "200803.224000", "200803.227000", "200803.231000", "200803.234000", "200803.237000", "200803.241000", "200803.244000", "200803.247000", "200803.250000", "200823.183000", "200823.187000", "200823.190000", "200823.193000", "200823.197000", "200823.200000", "200823.203000", "200823.207000", "200823.210000", "200823.213000", "200823.216000", "200823.220000", "200823.223000", "200823.226000", "200823.229000", "200823.233000", "200823.236000", "200823.239000", "200823.242000", "200823.246000", "200823.249000", "200903.183000", "200903.187000", "200903.190000", "200903.194000", "200903.197000", "200903.200000", "200903.204000", "200903.207000", "200903.210000", "200903.213000", "200903.217000", "200903.220000", "200903.223000", "200903.230000", "200903.234000", "200903.237000", "200903.240000", "200903.244000", "200903.247000", "200903.250000", "200903.253000", "200903.257000", "200903.260000", "200903.263000", "200903.266000", "200903.270000", "200903.273000", "200903.276000", "200903.280000", "200903.283000", "200943.183000", "200943.187000", "200943.190000", "200943.194000", "200943.197000", "200943.200000", "200943.204000", "200943.207000", "200943.210000", "200943.214000", "200943.217000", "200943.220000", "200943.223000", "200943.227000", "200943.230000", "200943.233000", "200943.237000", "200943.240000", "200943.243000", "200943.247000", "200943.250000", "200943.253000", "200943.256000", "200943.260000", "200943.263000", "200943.266000", "200943.270000", "201023.183000", "201023.187000", "201023.191000", "201023.194000", "201023.197000", "201023.201000", "201023.205000", "201023.209000", "201023.213000", "201023.216000", "201023.220000", "201023.223000", "201023.226000", "201023.230000", "201023.233000", "201023.236000", "201023.239000", "201023.243000", "201023.246000", "201023.249000", "201023.259000", "201023.263000", "201023.266000", "201023.269000", "201023.272000", "201023.276000", "201103.183000", "201103.187000", "201103.190000", "201103.194000", "201103.197000", "201103.200000", "201103.213000", "201103.217000", "201103.220000", "201103.223000", "201103.227000", "201103.230000", "201103.233000", "201103.237000", "201103.240000", "201103.243000", "201103.247000", "201103.250000", "201103.253000", "201103.256000", "201103.259000", "201103.263000", "201103.266000", "201103.269000", "201103.273000", "201103.276000", "201103.279000", "201110.962000", "201110.965000", "201110.969000", "201110.972000", "201110.976000", "201110.979000"],
      "InstanceNumber": [1, 2, 3, 4, 5, 6, 7, 8, 9, 10, 11, 12, 13, 14, 15, 16, 17, 18, 19, 20, 21, 22, 23, 24, 25, 26, 27, 28, 29, 30, 31, 32, 33, 34, 35, 36, 37, 38, 39, 40, 41, 42, 43, 44, 45, 46, 47, 48, 49, 50, 51, 52, 53, 54, 55, 56, 57, 58, 59, 60, 61, 62, 63, 64, 65, 66, 67, 68, 69, 70, 71, 72, 73, 74, 75, 76, 77, 78, 79, 80, 81, 82, 83, 84, 85, 86, 87, 88, 89, 90, 91, 92, 93, 94, 95, 96, 97, 98, 99, 100, 101, 102, 103, 104, 105, 106, 107, 108, 109, 110, 111, 112, 113, 114, 115, 116, 117, 118, 119, 120, 121, 122, 123, 124, 125, 126, 127, 128, 129, 130, 131, 132, 133, 134, 135, 136, 137, 138, 139, 140, 141, 142, 143, 144, 145, 146, 147, 148, 149, 150, 151, 152, 153, 154, 155, 156, 157, 158, 159, 160, 161, 162, 163, 164, 165, 166, 167, 168, 169, 170, 171, 172, 173, 174, 175, 176, 177, 178, 179, 180, 181, 182, 183, 184, 185, 186, 187, 188, 189, 190, 191, 192, 193, 194, 195, 196, 197, 198, 199, 200, 201, 202],
      "LargestImagePixelValue": [61359, 58887, 58533, 58345, 57968, 58196, 57751, 57996, 57532, 58049, 57287, 57648, 57444, 57889, 57353, 57761, 58097, 57793, 58398, 57771, 57732, 57851, 58062, 57778, 57268, 57994, 57555, 57852, 57594, 57520, 57528, 58954, 58247, 58220, 57994, 58023, 57624, 58049, 57476, 58369, 57555, 59163, 59069, 58412, 58666, 58787, 57809, 58266, 57614, 57758, 57492, 57757, 57385, 57711, 57809, 58590, 58594, 58343, 58251, 58760, 57799, 57781, 57562, 57545, 57590, 58201, 59423, 58436, 58342, 58921, 58174, 58890, 58486, 58234, 57776, 57897, 57647, 57430, 57868, 57867, 57917, 58088, 57650, 57974, 57960, 57670, 56997, 57969, 57711, 57607, 58450, 58308, 58642, 58369, 57488, 58143, 57662, 58081, 57859, 57494, 57933, 57653, 57874, 57982, 57276, 58300, 57542, 57883, 57228, 57937, 57500, 57226, 57637, 57043, 57148, 56602, 56729, 56993, 56904, 57128, 56857, 57470, 57232, 56900, 56718, 56855, 56620, 56807, 57140, 57724, 57786, 57563, 57884, 57243, 57240, 57705, 57724, 57959, 57891, 57940, 57289, 56850, 57929, 57999, 58638, 57857, 57978, 57910, 58214, 57599, 57538, 57374, 57104, 57428, 57319, 56581, 56305, 56381, 56639, 55846, 55739, 56035, 57027, 56620, 56069, 56081, 55888, 55611, 55748, 56554, 56046, 56011, 55848, 56115, 56626, 55897, 55955, 55891, 55702, 56437, 56268, 55973, 56505, 55953, 55731, 55851, 55001, 55649, 55575, 55858, 55316, 55097, 55567, 54884, 55177, 55096, 55504, 54945, 54706, 54797, 55474, 55523],
      "WindowCenter": [10820.0, 10769.0, 10742.0, 10720.0, 10696.0, 10679.0, 10664.0, 10676.0, 10686.0, 10695.0, 10688.0, 10682.0, 10688.0, 10708.0, 10707.0, 10723.0, 10731.0, 10727.0, 10718.0, 10702.0, 10685.0, 10697.0, 10714.0, 10732.0, 10720.0, 10712.0, 10698.0, 10701.0, 10703.0, 10703.0, 10712.0, 10730.0, 10725.0, 10718.0, 10705.0, 10695.0, 10695.0, 10693.0, 10693.0, 10700.0, 10705.0, 10732.0, 10737.0, 10734.0, 10717.0, 10712.0, 10693.0, 10697.0, 10687.0, 10687.0, 10682.0, 10680.0, 10679.0, 10674.0, 10686.0, 10689.0, 10697.0, 10707.0, 10721.0, 10729.0, 10719.0, 10712.0, 10708.0, 10702.0, 10710.0, 10714.0, 10712.0, 10694.0, 10684.0, 10689.0, 10691.0, 10689.0, 10682.0, 10676.0, 10683.0, 10698.0, 10718.0, 10722.0, 10742.0, 10738.0, 10745.0, 10734.0, 10727.0, 10734.0, 10736.0, 10724.0, 10710.0, 10702.0, 10688.0, 10695.0, 10723.0, 10734.0, 10726.0, 10711.0, 10689.0, 10679.0, 10685.0, 10706.0, 10717.0, 10714.0, 10712.0, 10705.0, 10702.0, 10707.0, 10702.0, 10717.0, 10711.0, 10696.0, 10680.0, 10682.0, 10691.0, 10702.0, 10710.0, 10713.0, 10712.0, 10715.0, 10715.0, 10722.0, 10709.0, 10706.0, 10706.0, 10718.0, 10720.0, 10713.0, 10708.0, 10709.0, 10701.0, 10691.0, 10681.0, 10685.0, 10701.0, 10710.0, 10717.0, 10710.0, 10688.0, 10675.0, 10671.0, 10685.0, 10704.0, 10706.0, 10696.0, 10673.0, 10668.0, 10679.0, 10686.0, 10682.0, 10675.0, 10667.0, 10672.0, 10677.0, 10692.0, 10693.0, 10697.0, 10701.0, 10697.0, 10705.0, 10717.0, 10711.0, 10693.0, 10664.0, 10641.0, 10650.0, 10670.0, 10681.0, 10671.0, 10657.0, 10653.0, 10655.0, 10664.0, 10668.0, 10670.0, 10680.0, 10690.0, 10698.0, 10703.0, 10697.0, 10689.0, 10688.0, 10691.0, 10708.0, 10712.0, 10708.0, 10704.0, 10697.0, 10681.0, 10678.0, 10671.0, 10680.0, 10696.0, 10690.0, 10675.0, 10659.0, 10662.0, 10663.0, 10673.0, 10682.0, 10679.0, 10659.0, 10656.0, 10659.0, 10680.0, 10689.0],
      "WindowWidth": [23562.0, 23400.0, 23305.0, 23238.0, 23175.0, 23129.0, 23092.0, 23117.0, 23141.0, 23158.0, 23145.0, 23132.0, 23144.0, 23189.0, 23191.0, 23221.0, 23240.0, 23233.0, 23213.0, 23176.0, 23136.0, 23162.0, 23200.0, 23242.0, 23216.0, 23198.0, 23167.0, 23170.0, 23180.0, 23181.0, 23203.0, 23244.0, 23229.0, 23215.0, 23183.0, 23159.0, 23159.0, 23154.0, 23153.0, 23170.0, 23189.0, 23242.0, 23256.0, 23249.0, 23211.0, 23194.0, 23154.0, 23159.0, 23140.0, 23140.0, 23131.0, 23126.0, 23122.0, 23116.0, 23143.0, 23144.0, 23161.0, 23185.0, 23217.0, 23234.0, 23213.0, 23197.0, 23186.0, 23174.0, 23194.0, 23200.0, 23191.0, 23158.0, 23130.0, 23139.0, 23145.0, 23140.0, 23126.0, 23112.0, 23128.0, 23166.0, 23211.0, 23224.0, 23267.0, 23262.0, 23278.0, 23252.0, 23233.0, 23248.0, 23254.0, 23229.0, 23195.0, 23173.0, 23144.0, 23159.0, 23219.0, 23248.0, 23227.0, 23194.0, 23146.0, 23125.0, 23138.0, 23185.0, 23211.0, 23207.0, 23199.0, 23182.0, 23175.0, 23184.0, 23175.0, 23207.0, 23195.0, 23160.0, 23122.0, 23125.0, 23145.0, 23173.0, 23192.0, 23204.0, 23198.0, 23205.0, 23207.0, 23221.0, 23194.0, 23185.0, 23187.0, 23212.0, 23214.0, 23200.0, 23189.0, 23192.0, 23175.0, 23151.0, 23125.0, 23133.0, 23168.0, 23189.0, 23202.0, 23187.0, 23141.0, 23107.0, 23096.0, 23126.0, 23172.0, 23178.0, 23155.0, 23104.0, 23088.0, 23109.0, 23125.0, 23120.0, 23103.0, 23085.0, 23096.0, 23109.0, 23141.0, 23149.0, 23161.0, 23167.0, 23160.0, 23179.0, 23210.0, 23196.0, 23154.0, 23088.0, 23036.0, 23056.0, 23098.0, 23126.0, 23107.0, 23074.0, 23064.0, 23072.0, 23092.0, 23101.0, 23105.0, 23129.0, 23152.0, 23170.0, 23179.0, 23166.0, 23149.0, 23146.0, 23155.0, 23189.0, 23200.0, 23194.0, 23182.0, 23164.0, 23129.0, 23119.0, 23105.0, 23128.0, 23164.0, 23157.0, 23118.0, 23084.0, 23089.0, 23091.0, 23114.0, 23135.0, 23125.0, 23084.0, 23075.0, 23084.0, 23130.0, 23153.0]
    },
    "slices": {}
  }
}