{
  "AcquisitionMatrixPE": 104,
  "AcquisitionNumber": 1,
  "AcquisitionTime": "20:06:12.402500",
  "BandwidthPerPixelPhaseEncode": 17.17,
  "BaseResolution": 104,
  "BodyPartExamined": "BRAIN",
  "CoilCombinationMethod": "Sum of Squares",
  "ConsistencyInfo": "N4_VE11C_LATEST_20160120",
  "ConversionSoftware": "dcm2niix",
  "ConversionSoftwareVersion": "v1.0.20230411",
  "DerivedVendorReportedEchoSpacing": 0.000560011,
  "DeviceSerialNumber": "167006",
  "DwellTime": 2.1e-06,
  "EchoTime": 0.037,
  "EchoTime1": 0.037,
  "EchoTime2": 0.001,
  "EchoTrainLength": 104,
  "EffectiveEchoSpacing": 0.000560011,
  "FlipAngle": 52,
  "HeudiconvVersion": "0.5.3.post861+ge7d3c7f",
  "ImageComments": "Unaliased MB4/PE3/LB",
  "ImageOrientationPatientDICOM": [0.999758, -0.0206666, 0.007536, 0.0219894, 0.929449, -0.368293],
  "ImageOrientationText": "Tra>Cor(-21.6)>Sag(-0.0)",
  "ImageType": [
    "ORIGINAL",
    "PRIMARY",
    "P",
    "MB",
    "ND",
    "MOSAIC",
    "PHASE"
],
  "ImagingFrequency": 123.249933,
  "InPlanePhaseEncodingDirectionDICOM": "COL",
  "InstitutionAddress": "Chemin Queen-Mary 4565,Montreal,District,CA,H3W 1W5",
  "InstitutionName": "IUGM",
  "InstitutionalDepartmentName": "Department",
  "MRAcquisitionType": "2D",
  "MagneticFieldStrength": 3,
  "Manufacturer": "Siemens",
  "ManufacturersModelName": "Prisma_fit",
  "MatrixCoilMode": "SENSE",
  "Modality": "MR",
  "MultibandAccelerationFactor": 4,
  "NonlinearGradientCorrection": false,
  "PartialFourier": 1,
  "PatientPosition": "HFS",
  "PercentPhaseFOV": 100,
  "PercentSampling": 100,
  "PhaseEncodingDirection": "j",
  "PhaseEncodingSteps": 104,
  "PhaseResolution": 1,
  "PixelBandwidth": 2290,
  "ProcedureStepDescription": "localizers^retinotopy",
  "ProtocolName": "func_task-bars",
  "PulseSequenceDetails": "%CustomerSeq%\\cmrr_mbep2d_bold",
  "ReceiveCoilActiveElements": "HC1-7;NC1,2",
  "ReceiveCoilName": "HeadNeck_64",
  "ReconMatrixPE": 104,
  "RepetitionTime": 1.49,
  "SAR": 0.0885765,
  "ScanOptions": "FS",
  "ScanningSequence": "EP",
  "SequenceName": "epfid2d1_104",
  "SequenceVariant": "SK\\SS",
  "SeriesDescription": "func_task-bars",
  "SeriesNumber": 17,
  "ShimSetting": [586, -7286, -8829, 356, 41, -407, -31, 106],
  "SliceThickness": 2,
  "SliceTiming": [0, 0.785, 0.1, 0.8825, 0.1975, 0.98, 0.295, 1.08, 0.3925, 1.1775, 0.49, 1.275, 0.59, 1.3725, 0.6875, 0, 0.785, 0.1, 0.8825, 0.1975, 0.98, 0.295, 1.08, 0.3925, 1.1775, 0.49, 1.275, 0.59, 1.3725, 0.6875, 0, 0.785, 0.1, 0.8825, 0.1975, 0.98, 0.295, 1.08, 0.3925, 1.1775, 0.49, 1.275, 0.59, 1.3725, 0.6875, 0, 0.785, 0.1, 0.8825, 0.1975, 0.98, 0.295, 1.08, 0.3925, 1.1775, 0.49, 1.275, 0.59, 1.3725, 0.6875],
  "SoftwareVersions": "syngo MR E11",
  "SpacingBetweenSlices": 2,
  "StationName": "MRC35049",
  "TaskName": "bars",
  "TotalReadoutTime": 0.0576811,
  "TxRefAmp": 324.264,
  "WipMemBlock": "2e7a3c68-ccce-4e3c-b537-5f096fbc80ec||Sequence: R017 ve11c/master r/75a17815+; Jun 28 2022 16:32:11 by eja",
  "dcmmeta_affine": [
    [-1.9995160102844238, 0.04397876560688019, -0.0012141130864620209, 102.61534118652344],
    [0.041333287954330444, 1.8588989973068237, -0.7367400527000427, -69.7616195678711],
    [0.01507200300693512, 0.73658686876297, 1.8593580722808838, -67.04850769042969],
    [0.0, 0.0, 0.0, 1.0]
],
  "dcmmeta_reorient_transform": [
    [0.0, -1.0, 0.0, 103.0],
    [1.0, 0.0, 0.0, 0.0],
    [0.0, 0.0, 1.0, 0.0],
    [0.0, 0.0, 0.0, 1.0]
],
  "dcmmeta_shape": [104, 104, 60, 202],
  "dcmmeta_slice_dim": 2,
  "dcmmeta_version": 0.6,
  "global": {
    "const": {
      "AcquisitionMatrix": [104, 0, 0, 104],
      "AngioFlag": "N",
      "BitsAllocated": 16,
      "BitsStored": 16,
      "BodyPartExamined": "BRAIN",
      "Columns": 832,
      "EchoNumbers": 1,
      "EchoTime": 37.0,
      "EchoTrainLength": 104,
      "FlipAngle": 52.0,
      "HighBit": 15,
      "ImageOrientationPatient": [0.99975801997173, -0.0206666442978, 0.00753600130514, 0.02198938345118, 0.92944952262913, -0.3682934317904],
      "ImagePositionPatient": [-850.97726232061, -783.29891551694, 271.45134869813],
      "ImageType": [
        "ORIGINAL",
        "PRIMARY",
        "P",
        "MB",
        "ND",
        "MOSAIC"
],
      "ImagedNucleus": "1H",
      "ImagingFrequency": 123.249933,
      "InPlanePhaseEncodingDirection": "COL",
      "LargestImagePixelValue": 4095,
      "MRAcquisitionType": "2D",
      "MagneticFieldStrength": 3.0,
      "Manufacturer": "SIEMENS",
      "ManufacturerModelName": "Prisma_fit",
      "Modality": "MR",
      "NumberOfAverages": 1.0,
      "NumberOfPhaseEncodingSteps": 104,
      "PercentPhaseFieldOfView": 100.0,
      "PercentSampling": 100.0,
      "PerformedProcedureStepStartTime": "194909.669000",
      "PhotometricInterpretation": "MONOCHROME2",
      "PixelBandwidth": 2290.0,
      "PixelRepresentation": 0,
      "PixelSpacing": [2.0, 2.0],
      "ProtocolName": "func_task-bars",
      "RepetitionTime": 1490.0,
      "RescaleIntercept": -4096.0,
      "RescaleSlope": 2.0,
      "RescaleType": "US",
      "Rows": 832,
      "SAR": 0.08857651524623,
      "SamplesPerPixel": 1,
      "ScanOptions": "FS",
      "ScanningSequence": "EP",
      "SequenceName": "epfid2d1_104",
      "SequenceVariant": [
        "SK",
        "SS"
],
      "SeriesDescription": "func_task-bars",
      "SeriesNumber": 17,
      "SeriesTime": "200723.357000",
      "SliceLocation": -36.697796729169,
      "SliceThickness": 2.0,
      "SmallestImagePixelValue": 0,
      "SoftwareVersions": "syngo MR E11",
      "SpacingBetweenSlices": 2.0000000020608,
      "SpecificCharacterSet": "ISO_IR 100",
      "StudyID": "1",
      "StudyTime": "194909.570000",
      "TransmitCoilName": "Body",
      "VariableFlipAngleFlag": "N",
      "WindowCenterWidthExplanation": "Algo1",
      "dBdt": 0.0},
    "slices": {}
  },
  "time": {
    "samples": {
      "AcquisitionNumber": [1, 2, 3, 4, 5, 6, 7, 8, 9, 10, 11, 12, 13, 14, 15, 16, 17, 18, 19, 20, 21, 22, 23, 24, 25, 26, 27, 28, 29, 30, 31, 32, 33, 34, 35, 36, 37, 38, 39, 40, 41, 42, 43, 44, 45, 46, 47, 48, 49, 50, 51, 52, 53, 54, 55, 56, 57, 58, 59, 60, 61, 62, 63, 64, 65, 66, 67, 68, 69, 70, 71, 72, 73, 74, 75, 76, 77, 78, 79, 80, 81, 82, 83, 84, 85, 86, 87, 88, 89, 90, 91, 92, 93, 94, 95, 96, 97, 98, 99, 100, 101, 102, 103, 104, 105, 106, 107, 108, 109, 110, 111, 112, 113, 114, 115, 116, 117, 118, 119, 120, 121, 122, 123, 124, 125, 126, 127, 128, 129, 130, 131, 132, 133, 134, 135, 136, 137, 138, 139, 140, 141, 142, 143, 144, 145, 146, 147, 148, 149, 150, 151, 152, 153, 154, 155, 156, 157, 158, 159, 160, 161, 162, 163, 164, 165, 166, 167, 168, 169, 170, 171, 172, 173, 174, 175, 176, 177, 178, 179, 180, 181, 182, 183, 184, 185, 186, 187, 188, 189, 190, 191, 192, 193, 194, 195, 196, 197, 198, 199, 200, 201, 202],
      "AcquisitionTime": ["200612.402500", "200613.892500", "200615.382500", "200616.872500", "200618.362500", "200619.852500", "200621.342500", "200622.832500", "200624.322500", "200625.812500", "200627.302500", "200628.792500", "200630.282500", "200631.772500", "200633.262500", "200634.752500", "200636.242500", "200637.732500", "200639.222500", "200640.712500", "200642.202500", "200643.692500", "200645.182500", "200646.672500", "200648.162500", "200649.652500", "200651.142500", "200652.632500", "200654.122500", "200655.612500", "200657.102500", "200658.592500", "200700.082500", "200701.572500", "200703.062500", "200704.552500", "200706.042500", "200707.532500", "200709.022500", "200710.512500", "200712.002500", "200713.492500", "200714.982500", "200716.472500", "200717.962500", "200719.452500", "200720.942500", "200722.432500", "200723.922500", "200725.412500", "200726.902500", "200728.392500", "200729.882500", "200731.372500", "200732.862500", "200734.352500", "200735.842500", "200737.332500", "200738.822500", "200740.312500", "200741.802500", "200743.292500", "200744.782500", "200746.272500", "200747.762500", "200749.252500", "200750.742500", "200752.232500", "200753.722500", "200755.212500", "200756.702500", "200758.192500", "200759.682500", "200801.172500", "200802.662500", "200804.152500", "200805.642500", "200807.132500", "200808.622500", "200810.112500", "200811.602500", "200813.092500", "200814.582500", "200816.072500", "200817.562500", "200819.052500", "200820.542500", "200822.032500", "200823.522500", "200825.012500", "200826.502500", "200827.992500", "200829.482500", "200830.972500", "200832.462500", "200833.952500", "200835.442500", "200836.932500", "200838.422500", "200839.912500", "200841.402500", "200842.892500", "200844.382500", "200845.872500", "200847.362500", "200848.852500", "200850.342500", "200851.832500", "200853.322500", "200854.812500", "200856.302500", "200857.792500", "200859.282500", "200900.772500", "200902.262500", "200903.752500", "200905.242500", "200906.732500", "200908.222500", "200909.712500", "200911.202500", "200912.692500", "200914.182500", "200915.672500", "200917.162500", "200918.652500", "200920.142500", "200921.632500", "200923.122500", "200924.612500", "200926.102500", "200927.592500", "200929.082500", "200930.572500", "200932.062500", "200933.552500", "200935.042500", "200936.532500", "200938.022500", "200939.512500", "200941.002500", "200942.492500", "200943.982500", "200945.472500", "200946.962500", "200948.452500", "200949.942500", "200951.432500", "200952.922500", "200954.412500", "200955.902500", "200957.392500", "200958.882500", "201000.372500", "201001.862500", "201003.352500", "201004.842500", "201006.332500", "201007.822500", "201009.312500", "201010.802500", "201012.292500", "201013.782500", "201015.272500", "201016.762500", "201018.252500", "201019.742500", "201021.232500", "201022.722500", "201024.212500", "201025.702500", "201027.192500", "201028.682500", "201030.172500", "201031.662500", "201033.152500", "201034.642500", "201036.132500", "201037.622500", "201039.112500", "201040.602500", "201042.092500", "201043.582500", "201045.072500", "201046.562500", "201048.052500", "201049.542500", "201051.032500", "201052.522500", "201054.012500", "201055.502500", "201056.992500", "201058.482500", "201059.972500", "201101.462500", "201102.952500", "201104.442500", "201105.932500", "201107.422500", "201108.912500", "201110.402500", "201111.892500"],
      "ContentTime": ["200723.359000", "200723.362000", "200723.364000", "200723.367000", "200723.369000", "200723.372000", "200723.374000", "200723.384000", "200723.387000", "200723.389000", "200723.392000", "200723.394000", "200723.397000", "200723.399000", "200723.402000", "200723.404000", "200723.407000", "200723.409000", "200723.411000", "200723.414000", "200723.416000", "200723.419000", "200723.421000", "200723.424000", "200723.427000", "200743.737000", "200743.740000", "200743.742000", "200743.745000", "200743.747000", "200743.750000", "200743.752000", "200743.755000", "200743.757000", "200743.760000", "200743.762000", "200743.765000", "200743.767000", "200743.770000", "200743.772000", "200743.775000", "200743.777000", "200743.779000", "200743.782000", "200743.784000", "200803.307000", "200803.310000", "200803.312000", "200803.315000", "200803.317000", "200803.324000", "200803.327000", "200803.329000", "200803.332000", "200803.334000", "200803.337000", "200803.339000", "200803.342000", "200803.344000", "200803.347000", "200803.349000", "200803.352000", "200803.354000", "200803.357000", "200803.359000", "200823.307000", "200823.310000", "200823.312000", "200823.315000", "200823.317000", "200823.320000", "200823.322000", "200823.325000", "200823.327000", "200823.330000", "200823.332000", "200823.335000", "200823.337000", "200823.349000", "200823.351000", "200823.354000", "200823.356000", "200823.359000", "200823.361000", "200823.364000", "200823.366000", "200903.335000", "200903.337000", "200903.340000", "200903.342000", "200903.345000", "200903.347000", "200903.350000", "200903.352000", "200903.355000", "200903.357000", "200903.360000", "200903.362000", "200903.365000", "200903.367000", "200903.370000", "200903.372000", "200903.375000", "200903.378000", "200903.380000", "200903.383000", "200903.385000", "200903.388000", "200903.391000", "200903.393000", "200903.396000", "200903.399000", "200903.401000", "200903.404000", "200903.406000", "200903.409000", "200943.329000", "200943.332000", "200943.334000", "200943.337000", "200943.339000", "200943.342000", "200943.344000", "200943.347000", "200943.349000", "200943.352000", "200943.354000", "200943.357000", "200943.359000", "200943.362000", "200943.365000", "200943.367000", "200943.370000", "200943.372000", "200943.375000", "200943.377000", "200943.380000", "200943.383000", "200943.385000", "200943.388000", "200943.390000", "200943.393000", "200943.395000", "201023.317000", "201023.320000", "201023.323000", "201023.325000", "201023.328000", "201023.330000", "201023.333000", "201023.335000", "201023.338000", "201023.340000", "201023.343000", "201023.346000", "201023.348000", "201023.351000", "201023.353000", "201023.356000", "201023.358000", "201023.361000", "201023.363000", "201023.366000", "201023.369000", "201023.371000", "201023.374000", "201023.376000", "201023.379000", "201023.381000", "201103.323000", "201103.326000", "201103.329000", "201103.331000", "201103.334000", "201103.336000", "201103.339000", "201103.341000", "201103.344000", "201103.346000", "201103.349000", "201103.352000", "201103.354000", "201103.357000", "201103.359000", "201103.362000", "201103.364000", "201103.367000", "201103.369000", "201103.371000", "201103.374000", "201103.377000", "201103.379000", "201103.382000", "201103.384000", "201103.387000", "201103.389000", "201111.008000", "201111.011000", "201111.014000", "201111.016000", "201111.019000", "201111.021000"],
      "InstanceCreationTime": ["200723.359000", "200723.362000", "200723.364000", "200723.367000", "200723.369000", "200723.372000", "200723.374000", "200723.384000", "200723.387000", "200723.389000", "200723.392000", "200723.394000", "200723.397000", "200723.399000", "200723.402000", "200723.404000", "200723.407000", "200723.409000", "200723.411000", "200723.414000", "200723.416000", "200723.419000", "200723.421000", "200723.424000", "200723.427000", "200743.737000", "200743.740000", "200743.742000", "200743.745000", "200743.747000", "200743.750000", "200743.752000", "200743.755000", "200743.757000", "200743.760000", "200743.762000", "200743.765000", "200743.767000", "200743.770000", "200743.772000", "200743.775000", "200743.777000", "200743.779000", "200743.782000", "200743.784000", "200803.307000", "200803.310000", "200803.312000", "200803.315000", "200803.317000", "200803.324000", "200803.327000", "200803.329000", "200803.332000", "200803.334000", "200803.337000", "200803.339000", "200803.342000", "200803.344000", "200803.347000", "200803.349000", "200803.352000", "200803.354000", "200803.357000", "200803.359000", "200823.307000", "200823.310000", "200823.312000", "200823.315000", "200823.317000", "200823.320000", "200823.322000", "200823.325000", "200823.327000", "200823.330000", "200823.332000", "200823.335000", "200823.337000", "200823.349000", "200823.351000", "200823.354000", "200823.356000", "200823.359000", "200823.361000", "200823.364000", "200823.366000", "200903.335000", "200903.337000", "200903.340000", "200903.342000", "200903.345000", "200903.347000", "200903.350000", "200903.352000", "200903.355000", "200903.357000", "200903.360000", "200903.362000", "200903.365000", "200903.367000", "200903.370000", "200903.372000", "200903.375000", "200903.378000", "200903.380000", "200903.383000", "200903.385000", "200903.388000", "200903.391000", "200903.393000", "200903.396000", "200903.399000", "200903.401000", "200903.404000", "200903.406000", "200903.409000", "200943.329000", "200943.332000", "200943.334000", "200943.337000", "200943.339000", "200943.342000", "200943.344000", "200943.347000", "200943.349000", "200943.352000", "200943.354000", "200943.357000", "200943.359000", "200943.362000", "200943.365000", "200943.367000", "200943.370000", "200943.372000", "200943.375000", "200943.377000", "200943.380000", "200943.383000", "200943.385000", "200943.388000", "200943.390000", "200943.393000", "200943.395000", "201023.317000", "201023.320000", "201023.323000", "201023.325000", "201023.328000", "201023.330000", "201023.333000", "201023.335000", "201023.338000", "201023.340000", "201023.343000", "201023.346000", "201023.348000", "201023.351000", "201023.353000", "201023.356000", "201023.358000", "201023.361000", "201023.363000", "201023.366000", "201023.369000", "201023.371000", "201023.374000", "201023.376000", "201023.379000", "201023.381000", "201103.323000", "201103.326000", "201103.329000", "201103.331000", "201103.334000", "201103.336000", "201103.339000", "201103.341000", "201103.344000", "201103.346000", "201103.349000", "201103.352000", "201103.354000", "201103.357000", "201103.359000", "201103.362000", "201103.364000", "201103.367000", "201103.369000", "201103.371000", "201103.374000", "201103.377000", "201103.379000", "201103.382000", "201103.384000", "201103.387000", "201103.389000", "201111.008000", "201111.011000", "201111.014000", "201111.016000", "201111.019000", "201111.021000"],
      "InstanceNumber": [1, 2, 3, 4, 5, 6, 7, 8, 9, 10, 11, 12, 13, 14, 15, 16, 17, 18, 19, 20, 21, 22, 23, 24, 25, 26, 27, 28, 29, 30, 31, 32, 33, 34, 35, 36, 37, 38, 39, 40, 41, 42, 43, 44, 45, 46, 47, 48, 49, 50, 51, 52, 53, 54, 55, 56, 57, 58, 59, 60, 61, 62, 63, 64, 65, 66, 67, 68, 69, 70, 71, 72, 73, 74, 75, 76, 77, 78, 79, 80, 81, 82, 83, 84, 85, 86, 87, 88, 89, 90, 91, 92, 93, 94, 95, 96, 97, 98, 99, 100, 101, 102, 103, 104, 105, 106, 107, 108, 109, 110, 111, 112, 113, 114, 115, 116, 117, 118, 119, 120, 121, 122, 123, 124, 125, 126, 127, 128, 129, 130, 131, 132, 133, 134, 135, 136, 137, 138, 139, 140, 141, 142, 143, 144, 145, 146, 147, 148, 149, 150, 151, 152, 153, 154, 155, 156, 157, 158, 159, 160, 161, 162, 163, 164, 165, 166, 167, 168, 169, 170, 171, 172, 173, 174, 175, 176, 177, 178, 179, 180, 181, 182, 183, 184, 185, 186, 187, 188, 189, 190, 191, 192, 193, 194, 195, 196, 197, 198, 199, 200, 201, 202],
      "WindowCenter": [4832.0, 4836.0, 4860.0, 4838.0, 4834.0, 4832.0, 4834.0, 4834.0, 4830.0, 4832.0, 4834.0, 4832.0, 4858.0, 4834.0, 4836.0, 4838.0, 4832.0, 4836.0, 4832.0, 4832.0, 4832.0, 4834.0, 4832.0, 4834.0, 4832.0, 4834.0, 4836.0, 4836.0, 4834.0, 4834.0, 4856.0, 4834.0, 4832.0, 4832.0, 4832.0, 4834.0, 4834.0, 4834.0, 4836.0, 4862.0, 4858.0, 4858.0, 4828.0, 4834.0, 4830.0, 4828.0, 4830.0, 4830.0, 4832.0, 4832.0, 4860.0, 4858.0, 4858.0, 4856.0, 4836.0, 4836.0, 4832.0, 4834.0, 4836.0, 4834.0, 4832.0, 4832.0, 4834.0, 4832.0, 4838.0, 4834.0, 4838.0, 4830.0, 4858.0, 4830.0, 4836.0, 4836.0, 4834.0, 4832.0, 4832.0, 4832.0, 4836.0, 4834.0, 4834.0, 4832.0, 4836.0, 4830.0, 4834.0, 4834.0, 4836.0, 4836.0, 4836.0, 4836.0, 4832.0, 4858.0, 4832.0, 4832.0, 4832.0, 4834.0, 4834.0, 4832.0, 4836.0, 4834.0, 4834.0, 4836.0, 4832.0, 4838.0, 4838.0, 4834.0, 4834.0, 4836.0, 4834.0, 4832.0, 4834.0, 4858.0, 4834.0, 4836.0, 4836.0, 4830.0, 4834.0, 4836.0, 4832.0, 4834.0, 4830.0, 4834.0, 4834.0, 4830.0, 4836.0, 4834.0, 4836.0, 4832.0, 4834.0, 4832.0, 4838.0, 4834.0, 4836.0, 4834.0, 4832.0, 4834.0, 4830.0, 4832.0, 4834.0, 4834.0, 4834.0, 4832.0, 4830.0, 4834.0, 4834.0, 4858.0, 4834.0, 4832.0, 4834.0, 4834.0, 4834.0, 4836.0, 4860.0, 4836.0, 4834.0, 4834.0, 4834.0, 4832.0, 4832.0, 4834.0, 4836.0, 4836.0, 4834.0, 4860.0, 4856.0, 4856.0, 4836.0, 4836.0, 4834.0, 4834.0, 4832.0, 4832.0, 4832.0, 4856.0, 4832.0, 4836.0, 4830.0, 4836.0, 4856.0, 4858.0, 4836.0, 4836.0, 4836.0, 4836.0, 4834.0, 4834.0, 4832.0, 4832.0, 4836.0, 4834.0, 4860.0, 4834.0, 4834.0, 4836.0, 4834.0, 4834.0, 4832.0, 4836.0, 4830.0, 4834.0, 4832.0, 4834.0, 4858.0, 4858.0],
      "WindowWidth": [18560.0, 18564.0, 18600.0, 18564.0, 18560.0, 18560.0, 18558.0, 18562.0, 18556.0, 18560.0, 18566.0, 18560.0, 18596.0, 18566.0, 18564.0, 18562.0, 18562.0, 18568.0, 18568.0, 18562.0, 18560.0, 18562.0, 18560.0, 18564.0, 18562.0, 18564.0, 18560.0, 18562.0, 18560.0, 18560.0, 18594.0, 18564.0, 18560.0, 18560.0, 18566.0, 18562.0, 18566.0, 18564.0, 18564.0, 18594.0, 18598.0, 18604.0, 18562.0, 18566.0, 18560.0, 18562.0, 18560.0, 18560.0, 18562.0, 18562.0, 18598.0, 18598.0, 18600.0, 18594.0, 18562.0, 18566.0, 18564.0, 18558.0, 18566.0, 18562.0, 18558.0, 18558.0, 18564.0, 18560.0, 18570.0, 18568.0, 18570.0, 18558.0, 18600.0, 18560.0, 18560.0, 18562.0, 18566.0, 18558.0, 18564.0, 18558.0, 18564.0, 18558.0, 18564.0, 18560.0, 18564.0, 18562.0, 18562.0, 18562.0, 18566.0, 18564.0, 18564.0, 18564.0, 18560.0, 18596.0, 18558.0, 18564.0, 18564.0, 18562.0, 18568.0, 18556.0, 18566.0, 18560.0, 18562.0, 18560.0, 18564.0, 18564.0, 18566.0, 18564.0, 18566.0, 18564.0, 18564.0, 18562.0, 18564.0, 18592.0, 18564.0, 18568.0, 18562.0, 18556.0, 18560.0, 18564.0, 18562.0, 18566.0, 18560.0, 18568.0, 18564.0, 18564.0, 18568.0, 18564.0, 18566.0, 18564.0, 18566.0, 18560.0, 18562.0, 18570.0, 18572.0, 18562.0, 18560.0, 18566.0, 18566.0, 18564.0, 18566.0, 18560.0, 18564.0, 18562.0, 18564.0, 18566.0, 18562.0, 18598.0, 18562.0, 18562.0, 18560.0, 18564.0, 18562.0, 18564.0, 18596.0, 18564.0, 18562.0, 18562.0, 18562.0, 18562.0, 18556.0, 18560.0, 18562.0, 18560.0, 18560.0, 18594.0, 18596.0, 18600.0, 18562.0, 18564.0, 18562.0, 18560.0, 18562.0, 18562.0, 18564.0, 18592.0, 18564.0, 18568.0, 18558.0, 18568.0, 18592.0, 18592.0, 18562.0, 18562.0, 18568.0, 18568.0, 18562.0, 18564.0, 18562.0, 18568.0, 18564.0, 18564.0, 18598.0, 18562.0, 18566.0, 18564.0, 18562.0, 18564.0, 18568.0, 18566.0, 18558.0, 18564.0, 18564.0, 18564.0, 18592.0, 18598.0]
    },
    "slices": {}
  }
}