{
  "AcquisitionMatrixPE": 104,
  "AcquisitionNumber": 1,
  "AcquisitionTime": "14:23:47.187500",
  "BandwidthPerPixelPhaseEncode": 17.17,
  "BaseResolution": 104,
  "BodyPartExamined": "BRAIN",
  "CoilString": "HC1-7;NC1_2",
  "ConsistencyInfo": "N4_VE11C_LATEST_20160120",
  "ConversionSoftware": "dcm2niix",
  "ConversionSoftwareVersion": "v1.0.20190902",
  "DerivedVendorReportedEchoSpacing": 0.000560011,
  "DeviceSerialNumber": "167006",
  "DwellTime": 2.1e-06,
  "EchoTime": 0.037,
  "EchoTrainLength": 104,
  "EffectiveEchoSpacing": 0.000560011,
  "FlipAngle": 52,
  "ImageComments": "Unaliased_MB4_PE3_LB",
  "ImageOrientationPatientDICOM": [0.999045, 0.0228091, 0.0372639, -0.0149966, 0.980115, -0.197864],
  "ImageType": [
    "ORIGINAL",
    "PRIMARY",
    "M",
    "MB",
    "ND",
    "MOSAIC"
],
  "ImagingFrequency": 123.259,
  "InPlanePhaseEncodingDirectionDICOM": "COL",
  "InstitutionAddress": "Chemin_Queen-Mary_4565_Montreal_District_CA_H3W_1W5",
  "InstitutionName": "IUGM",
  "InstitutionalDepartmentName": "Department",
  "MRAcquisitionType": "2D",
  "MagneticFieldStrength": 3,
  "Manufacturer": "Siemens",
  "ManufacturersModelName": "Prisma_fit",
  "Modality": "MR",
  "MultibandAccelerationFactor": 4,
  "PartialFourier": 1,
  "PatientPosition": "HFS",
  "PercentPhaseFOV": 100,
  "PhaseEncodingDirection": "j",
  "PhaseEncodingSteps": 104,
  "PhaseResolution": 1,
  "PixelBandwidth": 2290,
  "ProcedureStepDescription": "localizers_retinotopy",
  "ProtocolName": "func_task-bars",
  "PulseSequenceDetails": "%CustomerSeq%_cmrr_mbep2d_bold",
  "ReceiveCoilActiveElements": "HC1-7;NC1,2",
  "ReceiveCoilName": "HeadNeck_64",
  "ReconMatrixPE": 104,
  "RepetitionTime": 1.49,
  "SAR": 0.040651,
  "ScanOptions": "FS",
  "ScanningSequence": "EP",
  "SequenceName": "epfid2d1_104",
  "SequenceVariant": "SK_SS",
  "SeriesDescription": "func_task-bars",
  "SeriesNumber": 16,
  "ShimSetting": [634, -7237, -8778, 743, 54, -42, 115, -21],
  "SliceThickness": 2,
  "SliceTiming": [0, 0.785, 0.0975, 0.8825, 0.1975, 0.98, 0.295, 1.0775, 0.3925, 1.1775, 0.49, 1.275, 0.5875, 1.3725, 0.6875, 0, 0.785, 0.0975, 0.8825, 0.1975, 0.98, 0.295, 1.0775, 0.3925, 1.1775, 0.49, 1.275, 0.5875, 1.3725, 0.6875, 0, 0.785, 0.0975, 0.8825, 0.1975, 0.98, 0.295, 1.0775, 0.3925, 1.1775, 0.49, 1.275, 0.5875, 1.3725, 0.6875, 0, 0.785, 0.0975, 0.8825, 0.1975, 0.98, 0.295, 1.0775, 0.3925, 1.1775, 0.49, 1.275, 0.5875, 1.3725, 0.6875],
  "SoftwareVersions": "syngo_MR_E11",
  "SpacingBetweenSlices": 2,
  "StationName": "MRC35049",
  "TaskName": "bars",
  "TotalReadoutTime": 0.0576811,
  "TxRefAmp": 218.213,
  "WipMemBlock": "012be908-ac85-4fef-b793-3035e7f2fcf0||Sequence: R016 ve11c/master r/e634e98; Dec 19 2017 11:00:25 by eja",
  "dcmmeta_affine": [
    [-1.9980902671813965, -0.029993226751685143, 0.08207198977470398, 107.93234252929688],
    [-0.045618120580911636, 1.9602292776107788, -0.3942334055900574, -76.30227661132812],
    [0.0745278000831604, 0.3957289457321167, 1.959041714668274, -55.82512283325195],
    [0.0, 0.0, 0.0, 1.0]
],
  "dcmmeta_reorient_transform": [
    [0.0, -1.0, 0.0, 103.0],
    [1.0, 0.0, 0.0, 0.0],
    [0.0, 0.0, 1.0, 0.0],
    [0.0, 0.0, 0.0, 1.0]
],
  "dcmmeta_shape": [104, 104, 60, 202],
  "dcmmeta_slice_dim": 2,
  "dcmmeta_version": 0.6,
  "global": {
    "const": {
      "AcquisitionMatrix": [104, 0, 0, 104],
      "AngioFlag": "N",
      "BitsAllocated": 16,
      "BitsStored": 16,
      "BodyPartExamined": "BRAIN",
      "Columns": 832,
      "EchoNumbers": 1,
      "EchoTime": 37.0,
      "EchoTrainLength": 104,
      "FlipAngle": 52.0,
      "HighBit": 15,
      "ImageOrientationPatient": [0.99904511841775, 0.02280906087615, 0.03726389818068, -0.0149966133742, 0.98011466241349, -0.1978644740963],
      "ImagePositionPatient": [-821.23035438234, -855.72981141284, 101.85217733071],
      "ImageType": [
        "ORIGINAL",
        "PRIMARY",
        "M",
        "MB",
        "ND",
        "MOSAIC"
],
      "ImagedNucleus": "1H",
      "ImagingFrequency": 123.258946,
      "InPlanePhaseEncodingDirection": "COL",
      "MRAcquisitionType": "2D",
      "MagneticFieldStrength": 3.0,
      "Manufacturer": "SIEMENS",
      "ManufacturerModelName": "Prisma_fit",
      "Modality": "MR",
      "NumberOfAverages": 1.0,
      "NumberOfPhaseEncodingSteps": 104,
      "PercentPhaseFieldOfView": 100.0,
      "PercentSampling": 100.0,
      "PerformedProcedureStepStartTime": "140634.761000",
      "PhotometricInterpretation": "MONOCHROME2",
      "PixelBandwidth": 2290.0,
      "PixelRepresentation": 0,
      "PixelSpacing": [2.0, 2.0],
      "ProtocolName": "func_task-bars",
      "RepetitionTime": 1490.0,
      "Rows": 832,
      "SAR": 0.04065102089378,
      "SamplesPerPixel": 1,
      "ScanOptions": "FS",
      "ScanningSequence": "EP",
      "SequenceName": "epfid2d1_104",
      "SequenceVariant": [
        "SK",
        "SS"
],
      "SeriesDescription": "func_task-bars",
      "SeriesNumber": 16,
      "SeriesTime": "142514.692000",
      "SliceLocation": -35.212306096318,
      "SliceThickness": 2.0,
      "SmallestImagePixelValue": 0,
      "SoftwareVersions": "syngo MR E11",
      "SpacingBetweenSlices": 2.0000000071953,
      "SpecificCharacterSet": "ISO_IR 100",
      "StudyID": "1",
      "StudyTime": "140634.686000",
      "TransmitCoilName": "Body",
      "VariableFlipAngleFlag": "N",
      "WindowCenterWidthExplanation": "Algo1",
      "dBdt": 0.0},
    "slices": {}
  },
  "time": {
    "samples": {
      "AcquisitionNumber": [1, 2, 3, 4, 5, 6, 7, 8, 9, 10, 11, 12, 13, 14, 15, 16, 17, 18, 19, 20, 21, 22, 23, 24, 25, 26, 27, 28, 29, 30, 31, 32, 33, 34, 35, 36, 37, 38, 39, 40, 41, 42, 43, 44, 45, 46, 47, 48, 49, 50, 51, 52, 53, 54, 55, 56, 57, 58, 59, 60, 61, 62, 63, 64, 65, 66, 67, 68, 69, 70, 71, 72, 73, 74, 75, 76, 77, 78, 79, 80, 81, 82, 83, 84, 85, 86, 87, 88, 89, 90, 91, 92, 93, 94, 95, 96, 97, 98, 99, 100, 101, 102, 103, 104, 105, 106, 107, 108, 109, 110, 111, 112, 113, 114, 115, 116, 117, 118, 119, 120, 121, 122, 123, 124, 125, 126, 127, 128, 129, 130, 131, 132, 133, 134, 135, 136, 137, 138, 139, 140, 141, 142, 143, 144, 145, 146, 147, 148, 149, 150, 151, 152, 153, 154, 155, 156, 157, 158, 159, 160, 161, 162, 163, 164, 165, 166, 167, 168, 169, 170, 171, 172, 173, 174, 175, 176, 177, 178, 179, 180, 181, 182, 183, 184, 185, 186, 187, 188, 189, 190, 191, 192, 193, 194, 195, 196, 197, 198, 199, 200, 201, 202],
      "AcquisitionTime": ["142347.187500", "142348.677500", "142350.167500", "142351.657500", "142353.147500", "142354.637500", "142356.127500", "142357.617500", "142359.107500", "142400.597500", "142402.087500", "142403.577500", "142405.067500", "142406.557500", "142408.047500", "142409.537500", "142411.027500", "142412.517500", "142414.007500", "142415.497500", "142416.987500", "142418.477500", "142419.967500", "142421.457500", "142422.947500", "142424.437500", "142425.927500", "142427.417500", "142428.907500", "142430.397500", "142431.887500", "142433.377500", "142434.867500", "142436.357500", "142437.847500", "142439.337500", "142440.827500", "142442.317500", "142443.807500", "142445.297500", "142446.787500", "142448.277500", "142449.767500", "142451.257500", "142452.747500", "142454.237500", "142455.727500", "142457.217500", "142458.707500", "142500.197500", "142501.687500", "142503.177500", "142504.667500", "142506.157500", "142507.647500", "142509.137500", "142510.627500", "142512.117500", "142513.607500", "142515.097500", "142516.587500", "142518.077500", "142519.567500", "142521.057500", "142522.547500", "142524.037500", "142525.527500", "142527.017500", "142528.507500", "142529.997500", "142531.487500", "142532.977500", "142534.467500", "142535.957500", "142537.447500", "142538.937500", "142540.427500", "142541.917500", "142543.407500", "142544.897500", "142546.387500", "142547.877500", "142549.367500", "142550.857500", "142552.347500", "142553.837500", "142555.327500", "142556.817500", "142558.307500", "142559.797500", "142601.287500", "142602.777500", "142604.267500", "142605.757500", "142607.247500", "142608.737500", "142610.227500", "142611.717500", "142613.207500", "142614.697500", "142616.187500", "142617.677500", "142619.167500", "142620.657500", "142622.147500", "142623.637500", "142625.127500", "142626.617500", "142628.107500", "142629.597500", "142631.087500", "142632.577500", "142634.067500", "142635.557500", "142637.047500", "142638.537500", "142640.027500", "142641.517500", "142643.007500", "142644.497500", "142645.987500", "142647.477500", "142648.967500", "142650.457500", "142651.947500", "142653.437500", "142654.927500", "142656.417500", "142657.907500", "142659.397500", "142700.887500", "142702.377500", "142703.867500", "142705.357500", "142706.847500", "142708.337500", "142709.827500", "142711.317500", "142712.807500", "142714.297500", "142715.787500", "142717.277500", "142718.767500", "142720.257500", "142721.747500", "142723.237500", "142724.727500", "142726.217500", "142727.707500", "142729.197500", "142730.687500", "142732.177500", "142733.667500", "142735.157500", "142736.647500", "142738.137500", "142739.627500", "142741.117500", "142742.607500", "142744.097500", "142745.587500", "142747.077500", "142748.567500", "142750.057500", "142751.547500", "142753.037500", "142754.527500", "142756.017500", "142757.507500", "142758.997500", "142800.487500", "142801.977500", "142803.467500", "142804.957500", "142806.447500", "142807.937500", "142809.427500", "142810.917500", "142812.407500", "142813.897500", "142815.387500", "142816.877500", "142818.367500", "142819.857500", "142821.347500", "142822.837500", "142824.327500", "142825.817500", "142827.307500", "142828.797500", "142830.287500", "142831.777500", "142833.267500", "142834.757500", "142836.247500", "142837.737500", "142839.227500", "142840.717500", "142842.207500", "142843.697500", "142845.187500", "142846.677500"],
      "ContentTime": ["142514.695000", "142514.699000", "142514.703000", "142514.706000", "142514.710000", "142514.713000", "142514.718000", "142514.721000", "142514.725000", "142514.729000", "142514.732000", "142514.736000", "142514.739000", "142514.743000", "142514.746000", "142514.750000", "142514.753000", "142514.756000", "142514.760000", "142514.763000", "142514.767000", "142514.770000", "142514.774000", "142514.777000", "142514.781000", "142514.784000", "142514.788000", "142514.791000", "142514.794000", "142514.802000", "142514.806000", "142514.809000", "142514.813000", "142534.653000", "142534.657000", "142534.660000", "142534.664000", "142534.667000", "142534.670000", "142534.674000", "142534.677000", "142534.681000", "142534.684000", "142534.688000", "142534.691000", "142534.695000", "142534.698000", "142534.701000", "142534.705000", "142534.708000", "142534.711000", "142534.715000", "142534.718000", "142534.722000", "142554.653000", "142554.657000", "142554.660000", "142554.664000", "142554.667000", "142554.688000", "142554.692000", "142554.695000", "142554.699000", "142554.702000", "142554.706000", "142554.709000", "142554.713000", "142554.716000", "142554.719000", "142554.723000", "142554.726000", "142554.730000", "142554.733000", "142554.737000", "142614.653000", "142614.657000", "142614.660000", "142614.664000", "142614.667000", "142614.671000", "142614.674000", "142614.678000", "142614.681000", "142614.684000", "142614.688000", "142614.691000", "142614.695000", "142614.698000", "142614.702000", "142614.705000", "142614.709000", "142614.712000", "142614.716000", "142614.719000", "142654.654000", "142654.658000", "142654.662000", "142654.665000", "142654.669000", "142654.672000", "142654.676000", "142654.679000", "142654.683000", "142654.686000", "142654.689000", "142654.693000", "142654.696000", "142654.700000", "142654.703000", "142654.707000", "142654.710000", "142654.714000", "142654.717000", "142654.720000", "142654.724000", "142654.727000", "142654.731000", "142654.734000", "142654.738000", "142654.741000", "142654.745000", "142654.748000", "142654.752000", "142654.755000", "142654.758000", "142734.653000", "142734.657000", "142734.661000", "142734.664000", "142734.668000", "142734.671000", "142734.674000", "142734.678000", "142734.682000", "142734.685000", "142734.689000", "142734.692000", "142734.696000", "142734.699000", "142734.703000", "142734.706000", "142734.710000", "142734.713000", "142734.716000", "142734.720000", "142734.723000", "142734.727000", "142734.730000", "142734.734000", "142734.737000", "142734.740000", "142734.744000", "142814.653000", "142814.657000", "142814.661000", "142814.664000", "142814.668000", "142814.671000", "142814.674000", "142814.678000", "142814.682000", "142814.685000", "142814.688000", "142814.692000", "142814.696000", "142814.699000", "142814.702000", "142814.716000", "142814.719000", "142814.723000", "142814.726000", "142814.729000", "142814.733000", "142814.736000", "142814.740000", "142814.743000", "142814.747000", "142814.750000", "142814.754000", "142848.459000", "142848.463000", "142848.466000", "142848.470000", "142848.473000", "142848.477000", "142848.480000", "142848.484000", "142848.487000", "142848.491000", "142848.494000", "142848.498000", "142848.501000", "142848.505000", "142848.508000", "142848.512000", "142848.515000", "142848.518000", "142848.522000", "142848.526000", "142848.529000", "142848.532000", "142848.536000"],
      "InstanceCreationTime": ["142514.695000", "142514.699000", "142514.703000", "142514.706000", "142514.710000", "142514.713000", "142514.718000", "142514.721000", "142514.725000", "142514.729000", "142514.732000", "142514.736000", "142514.739000", "142514.743000", "142514.746000", "142514.750000", "142514.753000", "142514.756000", "142514.760000", "142514.763000", "142514.767000", "142514.770000", "142514.774000", "142514.777000", "142514.781000", "142514.784000", "142514.788000", "142514.791000", "142514.794000", "142514.802000", "142514.806000", "142514.809000", "142514.813000", "142534.653000", "142534.657000", "142534.660000", "142534.664000", "142534.667000", "142534.670000", "142534.674000", "142534.677000", "142534.681000", "142534.684000", "142534.688000", "142534.691000", "142534.695000", "142534.698000", "142534.701000", "142534.705000", "142534.708000", "142534.711000", "142534.715000", "142534.718000", "142534.722000", "142554.653000", "142554.657000", "142554.660000", "142554.664000", "142554.667000", "142554.688000", "142554.692000", "142554.695000", "142554.699000", "142554.702000", "142554.706000", "142554.709000", "142554.713000", "142554.716000", "142554.719000", "142554.723000", "142554.726000", "142554.730000", "142554.733000", "142554.737000", "142614.653000", "142614.657000", "142614.660000", "142614.664000", "142614.667000", "142614.671000", "142614.674000", "142614.678000", "142614.681000", "142614.684000", "142614.688000", "142614.691000", "142614.695000", "142614.698000", "142614.702000", "142614.705000", "142614.709000", "142614.712000", "142614.716000", "142614.719000", "142654.654000", "142654.658000", "142654.662000", "142654.665000", "142654.669000", "142654.672000", "142654.676000", "142654.679000", "142654.683000", "142654.686000", "142654.689000", "142654.693000", "142654.696000", "142654.700000", "142654.703000", "142654.707000", "142654.710000", "142654.714000", "142654.717000", "142654.720000", "142654.724000", "142654.727000", "142654.731000", "142654.734000", "142654.738000", "142654.741000", "142654.745000", "142654.748000", "142654.752000", "142654.755000", "142654.758000", "142734.653000", "142734.657000", "142734.661000", "142734.664000", "142734.668000", "142734.671000", "142734.674000", "142734.678000", "142734.682000", "142734.685000", "142734.689000", "142734.692000", "142734.696000", "142734.699000", "142734.703000", "142734.706000", "142734.710000", "142734.713000", "142734.716000", "142734.720000", "142734.723000", "142734.727000", "142734.730000", "142734.734000", "142734.737000", "142734.740000", "142734.744000", "142814.653000", "142814.657000", "142814.661000", "142814.664000", "142814.668000", "142814.671000", "142814.674000", "142814.678000", "142814.682000", "142814.685000", "142814.688000", "142814.692000", "142814.696000", "142814.699000", "142814.702000", "142814.716000", "142814.719000", "142814.723000", "142814.726000", "142814.729000", "142814.733000", "142814.736000", "142814.740000", "142814.743000", "142814.747000", "142814.750000", "142814.754000", "142848.459000", "142848.463000", "142848.466000", "142848.470000", "142848.473000", "142848.477000", "142848.480000", "142848.484000", "142848.487000", "142848.491000", "142848.494000", "142848.498000", "142848.501000", "142848.505000", "142848.508000", "142848.512000", "142848.515000", "142848.518000", "142848.522000", "142848.526000", "142848.529000", "142848.532000", "142848.536000"],
      "InstanceNumber": [1, 2, 3, 4, 5, 6, 7, 8, 9, 10, 11, 12, 13, 14, 15, 16, 17, 18, 19, 20, 21, 22, 23, 24, 25, 26, 27, 28, 29, 30, 31, 32, 33, 34, 35, 36, 37, 38, 39, 40, 41, 42, 43, 44, 45, 46, 47, 48, 49, 50, 51, 52, 53, 54, 55, 56, 57, 58, 59, 60, 61, 62, 63, 64, 65, 66, 67, 68, 69, 70, 71, 72, 73, 74, 75, 76, 77, 78, 79, 80, 81, 82, 83, 84, 85, 86, 87, 88, 89, 90, 91, 92, 93, 94, 95, 96, 97, 98, 99, 100, 101, 102, 103, 104, 105, 106, 107, 108, 109, 110, 111, 112, 113, 114, 115, 116, 117, 118, 119, 120, 121, 122, 123, 124, 125, 126, 127, 128, 129, 130, 131, 132, 133, 134, 135, 136, 137, 138, 139, 140, 141, 142, 143, 144, 145, 146, 147, 148, 149, 150, 151, 152, 153, 154, 155, 156, 157, 158, 159, 160, 161, 162, 163, 164, 165, 166, 167, 168, 169, 170, 171, 172, 173, 174, 175, 176, 177, 178, 179, 180, 181, 182, 183, 184, 185, 186, 187, 188, 189, 190, 191, 192, 193, 194, 195, 196, 197, 198, 199, 200, 201, 202],
      "LargestImagePixelValue": [42174, 40864, 40520, 38898, 38413, 39059, 39804, 38820, 39310, 39299, 38975, 39149, 39166, 39045, 39153, 38755, 39157, 38716, 38601, 38651, 38805, 38676, 38548, 38390, 38548, 38844, 38661, 38349, 38592, 38724, 38672, 38900, 39099, 39010, 38458, 38709, 38798, 39146, 38657, 38650, 38221, 37710, 38167, 39514, 39108, 38708, 38635, 38494, 38524, 38515, 38445, 38565, 38561, 38671, 38884, 38367, 38737, 39128, 38902, 39352, 38893, 38223, 38908, 38524, 38759, 39106, 39047, 39089, 38879, 38235, 38227, 38760, 38925, 38660, 38935, 38301, 38207, 38515, 39081, 38869, 39098, 38924, 38286, 38480, 38592, 38826, 38749, 38884, 38686, 38742, 38111, 38234, 38398, 38503, 38918, 38670, 38435, 38061, 38351, 38257, 38764, 39085, 38513, 38579, 38463, 38894, 38958, 38555, 38425, 38585, 38637, 38809, 38996, 39438, 38371, 38189, 38159, 38529, 38947, 38802, 38570, 38320, 38279, 38287, 38508, 38588, 38341, 38261, 38434, 38494, 38410, 38373, 38596, 38168, 38757, 38198, 38305, 38080, 38118, 38260, 38250, 38526, 37828, 38487, 38276, 38286, 38388, 38436, 38213, 38016, 38205, 38159, 37836, 38228, 38267, 38393, 38513, 38177, 37915, 38288, 38449, 38207, 38253, 38451, 38509, 38495, 38752, 38660, 38544, 38293, 38252, 38167, 38200, 38734, 38360, 38310, 38434, 37983, 38273, 38418, 38523, 38181, 38291, 38245, 38375, 38739, 38400, 38090, 38172, 37949, 38649, 38537, 38200, 38283, 38544, 38146, 38211, 38334, 38372, 38482, 38524, 38391],
      "WindowCenter": [9987.0, 9940.0, 9860.0, 9915.0, 9815.0, 9886.0, 9895.0, 9831.0, 9861.0, 9900.0, 9905.0, 9895.0, 9867.0, 9845.0, 9879.0, 9891.0, 9893.0, 9886.0, 9868.0, 9891.0, 9909.0, 9914.0, 9907.0, 9889.0, 9889.0, 9901.0, 9895.0, 9894.0, 9886.0, 9886.0, 9893.0, 9897.0, 9907.0, 9917.0, 9906.0, 9903.0, 9904.0, 9910.0, 9930.0, 9945.0, 9919.0, 9785.0, 9920.0, 9998.0, 9973.0, 9955.0, 9939.0, 9955.0, 9972.0, 9948.0, 9914.0, 9919.0, 9929.0, 9920.0, 9925.0, 9921.0, 9894.0, 9864.0, 9868.0, 9915.0, 9949.0, 9939.0, 9911.0, 9878.0, 9882.0, 9895.0, 9904.0, 9928.0, 9933.0, 9910.0, 9869.0, 9855.0, 9891.0, 9939.0, 9961.0, 9930.0, 9872.0, 9833.0, 9831.0, 9858.0, 9899.0, 9895.0, 9872.0, 9879.0, 9879.0, 9880.0, 9880.0, 9887.0, 9917.0, 9966.0, 9968.0, 9934.0, 9890.0, 9882.0, 9912.0, 9926.0, 9929.0, 9890.0, 9851.0, 9836.0, 9866.0, 9912.0, 9934.0, 9919.0, 9893.0, 9898.0, 9930.0, 9953.0, 9932.0, 9895.0, 9865.0, 9878.0, 9927.0, 9964.0, 9966.0, 9952.0, 9914.0, 9884.0, 9901.0, 9939.0, 9968.0, 9940.0, 9902.0, 9872.0, 9876.0, 9920.0, 9932.0, 9920.0, 9893.0, 9874.0, 9880.0, 9888.0, 9881.0, 9881.0, 9911.0, 9928.0, 9937.0, 9905.0, 9862.0, 9868.0, 9912.0, 9943.0, 9922.0, 9892.0, 9889.0, 9900.0, 9890.0, 9880.0, 9883.0, 9907.0, 9918.0, 9894.0, 9851.0, 9834.0, 9866.0, 9906.0, 9915.0, 9875.0, 9867.0, 9863.0, 9862.0, 9873.0, 9890.0, 9908.0, 9919.0, 9917.0, 9907.0, 9901.0, 9908.0, 9918.0, 9910.0, 9883.0, 9862.0, 9886.0, 9906.0, 9900.0, 9893.0, 9884.0, 9880.0, 9895.0, 9907.0, 9884.0, 9847.0, 9830.0, 9875.0, 9932.0, 9947.0, 9918.0, 9874.0, 9844.0, 9848.0, 9857.0, 9858.0, 9860.0, 9874.0, 9886.0, 9889.0, 9870.0, 9835.0, 9837.0, 9899.0, 9930.0],
      "WindowWidth": [21218.0, 21089.0, 20891.0, 21020.0, 20788.0, 20947.0, 20969.0, 20821.0, 20885.0, 20978.0, 20994.0, 20967.0, 20899.0, 20846.0, 20923.0, 20957.0, 20963.0, 20947.0, 20906.0, 20955.0, 21000.0, 21014.0, 20998.0, 20955.0, 20954.0, 20978.0, 20967.0, 20964.0, 20943.0, 20942.0, 20957.0, 20965.0, 20991.0, 21015.0, 20995.0, 20984.0, 20987.0, 21002.0, 21047.0, 21078.0, 21027.0, 20719.0, 21025.0, 21206.0, 21148.0, 21106.0, 21066.0, 21103.0, 21141.0, 21084.0, 21007.0, 21014.0, 21039.0, 21021.0, 21025.0, 21019.0, 20957.0, 20887.0, 20896.0, 21000.0, 21084.0, 21065.0, 20996.0, 20923.0, 20930.0, 20961.0, 20986.0, 21040.0, 21054.0, 20999.0, 20905.0, 20871.0, 20951.0, 21063.0, 21115.0, 21042.0, 20910.0, 20819.0, 20810.0, 20876.0, 20967.0, 20963.0, 20911.0, 20922.0, 20922.0, 20928.0, 20931.0, 20946.0, 21014.0, 21126.0, 21138.0, 21058.0, 20954.0, 20933.0, 20997.0, 21036.0, 21043.0, 20956.0, 20863.0, 20827.0, 20895.0, 21004.0, 21055.0, 21023.0, 20960.0, 20966.0, 21040.0, 21096.0, 21052.0, 20965.0, 20895.0, 20925.0, 21036.0, 21120.0, 21133.0, 21100.0, 21009.0, 20937.0, 20972.0, 21063.0, 21132.0, 21070.0, 20977.0, 20907.0, 20916.0, 21018.0, 21048.0, 21021.0, 20957.0, 20914.0, 20928.0, 20945.0, 20932.0, 20933.0, 20996.0, 21040.0, 21062.0, 20989.0, 20893.0, 20901.0, 20999.0, 21076.0, 21027.0, 20953.0, 20945.0, 20973.0, 20950.0, 20928.0, 20934.0, 20987.0, 21016.0, 20963.0, 20863.0, 20821.0, 20894.0, 20990.0, 21011.0, 20923.0, 20902.0, 20889.0, 20888.0, 20917.0, 20955.0, 20995.0, 21021.0, 21013.0, 20989.0, 20976.0, 20993.0, 21018.0, 21000.0, 20936.0, 20885.0, 20941.0, 20990.0, 20977.0, 20961.0, 20942.0, 20930.0, 20960.0, 20992.0, 20941.0, 20854.0, 20821.0, 20920.0, 21048.0, 21085.0, 21017.0, 20918.0, 20847.0, 20855.0, 20878.0, 20884.0, 20890.0, 20916.0, 20945.0, 20954.0, 20910.0, 20829.0, 20830.0, 20972.0, 21045.0]
    },
    "slices": {}
  }
}