{
  "AcquisitionMatrixPE": 104,
  "AcquisitionNumber": 1,
  "AcquisitionTime": "14:17:28.675000",
  "BandwidthPerPixelPhaseEncode": 17.17,
  "BaseResolution": 104,
  "BodyPartExamined": "BRAIN",
  "CoilString": "HC1-7;NC1_2",
  "ConsistencyInfo": "N4_VE11C_LATEST_20160120",
  "ConversionSoftware": "dcm2niix",
  "ConversionSoftwareVersion": "v1.0.20190902",
  "DerivedVendorReportedEchoSpacing": 0.000560011,
  "DeviceSerialNumber": "167006",
  "DwellTime": 2.1e-06,
  "EchoTime": 0.037,
  "EchoTrainLength": 104,
  "EffectiveEchoSpacing": 0.000560011,
  "FlipAngle": 52,
  "ImageComments": "Unaliased_MB4_PE3_LB",
  "ImageOrientationPatientDICOM": [0.999045, 0.0228091, 0.0372639, -0.0149966, 0.980115, -0.197864],
  "ImageType": [
    "ORIGINAL",
    "PRIMARY",
    "M",
    "MB",
    "ND",
    "MOSAIC"
],
  "ImagingFrequency": 123.259,
  "InPlanePhaseEncodingDirectionDICOM": "COL",
  "InstitutionAddress": "Chemin_Queen-Mary_4565_Montreal_District_CA_H3W_1W5",
  "InstitutionName": "IUGM",
  "InstitutionalDepartmentName": "Department",
  "MRAcquisitionType": "2D",
  "MagneticFieldStrength": 3,
  "Manufacturer": "Siemens",
  "ManufacturersModelName": "Prisma_fit",
  "Modality": "MR",
  "MultibandAccelerationFactor": 4,
  "PartialFourier": 1,
  "PatientPosition": "HFS",
  "PercentPhaseFOV": 100,
  "PhaseEncodingDirection": "j",
  "PhaseEncodingSteps": 104,
  "PhaseResolution": 1,
  "PixelBandwidth": 2290,
  "ProcedureStepDescription": "localizers_retinotopy",
  "ProtocolName": "func_task-rings",
  "PulseSequenceDetails": "%CustomerSeq%_cmrr_mbep2d_bold",
  "ReceiveCoilActiveElements": "HC1-7;NC1,2",
  "ReceiveCoilName": "HeadNeck_64",
  "ReconMatrixPE": 104,
  "RepetitionTime": 1.49,
  "SAR": 0.040651,
  "ScanOptions": "FS",
  "ScanningSequence": "EP",
  "SequenceName": "epfid2d1_104",
  "SequenceVariant": "SK_SS",
  "SeriesDescription": "func_task-rings",
  "SeriesNumber": 13,
  "ShimSetting": [634, -7237, -8778, 743, 54, -42, 115, -21],
  "SliceThickness": 2,
  "SliceTiming": [0, 0.785, 0.0975, 0.8825, 0.1975, 0.98, 0.295, 1.0775, 0.3925, 1.1775, 0.49, 1.275, 0.5875, 1.3725, 0.6875, 0, 0.785, 0.0975, 0.8825, 0.1975, 0.98, 0.295, 1.0775, 0.3925, 1.1775, 0.49, 1.275, 0.5875, 1.3725, 0.6875, 0, 0.785, 0.0975, 0.8825, 0.1975, 0.98, 0.295, 1.0775, 0.3925, 1.1775, 0.49, 1.275, 0.5875, 1.3725, 0.6875, 0, 0.785, 0.0975, 0.8825, 0.1975, 0.98, 0.295, 1.0775, 0.3925, 1.1775, 0.49, 1.275, 0.5875, 1.3725, 0.6875],
  "SoftwareVersions": "syngo_MR_E11",
  "SpacingBetweenSlices": 2,
  "StationName": "MRC35049",
  "TaskName": "rings",
  "TotalReadoutTime": 0.0576811,
  "TxRefAmp": 218.213,
  "WipMemBlock": "5843d891-5e3e-43a5-bc52-8bf298ddfab3||Sequence: R016 ve11c/master r/e634e98; Dec 19 2017 11:00:25 by eja",
  "dcmmeta_affine": [
    [-1.9980902671813965, -0.029993226751685143, 0.08207198977470398, 107.93234252929688],
    [-0.045618120580911636, 1.9602292776107788, -0.3942334055900574, -76.30227661132812],
    [0.0745278000831604, 0.3957289457321167, 1.959041714668274, -55.82512283325195],
    [0.0, 0.0, 0.0, 1.0]
],
  "dcmmeta_reorient_transform": [
    [0.0, -1.0, 0.0, 103.0],
    [1.0, 0.0, 0.0, 0.0],
    [0.0, 0.0, 1.0, 0.0],
    [0.0, 0.0, 0.0, 1.0]
],
  "dcmmeta_shape": [104, 104, 60, 202],
  "dcmmeta_slice_dim": 2,
  "dcmmeta_version": 0.6,
  "global": {
    "const": {
      "AcquisitionMatrix": [104, 0, 0, 104],
      "AngioFlag": "N",
      "BitsAllocated": 16,
      "BitsStored": 16,
      "BodyPartExamined": "BRAIN",
      "Columns": 832,
      "EchoNumbers": 1,
      "EchoTime": 37.0,
      "EchoTrainLength": 104,
      "FlipAngle": 52.0,
      "HighBit": 15,
      "ImageOrientationPatient": [0.99904511841775, 0.02280906087615, 0.03726389818068, -0.0149966133742, 0.98011466241349, -0.1978644740963],
      "ImagePositionPatient": [-821.23035438234, -855.72981141284, 101.85217733071],
      "ImageType": [
        "ORIGINAL",
        "PRIMARY",
        "M",
        "MB",
        "ND",
        "MOSAIC"
],
      "ImagedNucleus": "1H",
      "ImagingFrequency": 123.258947,
      "InPlanePhaseEncodingDirection": "COL",
      "MRAcquisitionType": "2D",
      "MagneticFieldStrength": 3.0,
      "Manufacturer": "SIEMENS",
      "ManufacturerModelName": "Prisma_fit",
      "Modality": "MR",
      "NumberOfAverages": 1.0,
      "NumberOfPhaseEncodingSteps": 104,
      "PercentPhaseFieldOfView": 100.0,
      "PercentSampling": 100.0,
      "PerformedProcedureStepStartTime": "140634.761000",
      "PhotometricInterpretation": "MONOCHROME2",
      "PixelBandwidth": 2290.0,
      "PixelRepresentation": 0,
      "PixelSpacing": [2.0, 2.0],
      "ProtocolName": "func_task-rings",
      "RepetitionTime": 1490.0,
      "Rows": 832,
      "SAR": 0.04065102089378,
      "SamplesPerPixel": 1,
      "ScanOptions": "FS",
      "ScanningSequence": "EP",
      "SequenceName": "epfid2d1_104",
      "SequenceVariant": [
        "SK",
        "SS"
],
      "SeriesDescription": "func_task-rings",
      "SeriesNumber": 13,
      "SeriesTime": "141854.696000",
      "SliceLocation": -35.212306096318,
      "SliceThickness": 2.0,
      "SmallestImagePixelValue": 0,
      "SoftwareVersions": "syngo MR E11",
      "SpacingBetweenSlices": 2.0000000071953,
      "SpecificCharacterSet": "ISO_IR 100",
      "StudyID": "1",
      "StudyTime": "140634.686000",
      "TransmitCoilName": "Body",
      "VariableFlipAngleFlag": "N",
      "WindowCenterWidthExplanation": "Algo1",
      "dBdt": 0.0},
    "slices": {}
  },
  "time": {
    "samples": {
      "AcquisitionNumber": [1, 2, 3, 4, 5, 6, 7, 8, 9, 10, 11, 12, 13, 14, 15, 16, 17, 18, 19, 20, 21, 22, 23, 24, 25, 26, 27, 28, 29, 30, 31, 32, 33, 34, 35, 36, 37, 38, 39, 40, 41, 42, 43, 44, 45, 46, 47, 48, 49, 50, 51, 52, 53, 54, 55, 56, 57, 58, 59, 60, 61, 62, 63, 64, 65, 66, 67, 68, 69, 70, 71, 72, 73, 74, 75, 76, 77, 78, 79, 80, 81, 82, 83, 84, 85, 86, 87, 88, 89, 90, 91, 92, 93, 94, 95, 96, 97, 98, 99, 100, 101, 102, 103, 104, 105, 106, 107, 108, 109, 110, 111, 112, 113, 114, 115, 116, 117, 118, 119, 120, 121, 122, 123, 124, 125, 126, 127, 128, 129, 130, 131, 132, 133, 134, 135, 136, 137, 138, 139, 140, 141, 142, 143, 144, 145, 146, 147, 148, 149, 150, 151, 152, 153, 154, 155, 156, 157, 158, 159, 160, 161, 162, 163, 164, 165, 166, 167, 168, 169, 170, 171, 172, 173, 174, 175, 176, 177, 178, 179, 180, 181, 182, 183, 184, 185, 186, 187, 188, 189, 190, 191, 192, 193, 194, 195, 196, 197, 198, 199, 200, 201, 202],
      "AcquisitionTime": ["141728.675000", "141730.165000", "141731.655000", "141733.145000", "141734.635000", "141736.125000", "141737.615000", "141739.105000", "141740.595000", "141742.085000", "141743.575000", "141745.065000", "141746.555000", "141748.045000", "141749.535000", "141751.025000", "141752.515000", "141754.005000", "141755.495000", "141756.985000", "141758.475000", "141759.965000", "141801.455000", "141802.945000", "141804.435000", "141805.925000", "141807.415000", "141808.905000", "141810.395000", "141811.885000", "141813.375000", "141814.865000", "141816.355000", "141817.845000", "141819.335000", "141820.825000", "141822.315000", "141823.805000", "141825.295000", "141826.785000", "141828.275000", "141829.765000", "141831.255000", "141832.745000", "141834.235000", "141835.725000", "141837.215000", "141838.705000", "141840.195000", "141841.685000", "141843.175000", "141844.665000", "141846.155000", "141847.645000", "141849.135000", "141850.625000", "141852.115000", "141853.605000", "141855.095000", "141856.585000", "141858.075000", "141859.565000", "141901.055000", "141902.545000", "141904.035000", "141905.525000", "141907.015000", "141908.505000", "141909.995000", "141911.485000", "141912.975000", "141914.465000", "141915.955000", "141917.445000", "141918.935000", "141920.425000", "141921.915000", "141923.405000", "141924.895000", "141926.385000", "141927.875000", "141929.365000", "141930.855000", "141932.345000", "141933.835000", "141935.325000", "141936.815000", "141938.305000", "141939.795000", "141941.285000", "141942.775000", "141944.265000", "141945.755000", "141947.245000", "141948.735000", "141950.225000", "141951.715000", "141953.205000", "141954.695000", "141956.185000", "141957.675000", "141959.165000", "142000.655000", "142002.145000", "142003.635000", "142005.125000", "142006.615000", "142008.105000", "142009.595000", "142011.085000", "142012.575000", "142014.065000", "142015.555000", "142017.045000", "142018.535000", "142020.025000", "142021.515000", "142023.005000", "142024.495000", "142025.985000", "142027.475000", "142028.965000", "142030.455000", "142031.945000", "142033.435000", "142034.925000", "142036.415000", "142037.905000", "142039.395000", "142040.885000", "142042.375000", "142043.865000", "142045.355000", "142046.845000", "142048.335000", "142049.825000", "142051.315000", "142052.805000", "142054.295000", "142055.785000", "142057.275000", "142058.765000", "142100.255000", "142101.745000", "142103.235000", "142104.725000", "142106.215000", "142107.705000", "142109.195000", "142110.685000", "142112.175000", "142113.665000", "142115.155000", "142116.645000", "142118.135000", "142119.625000", "142121.115000", "142122.605000", "142124.095000", "142125.585000", "142127.075000", "142128.565000", "142130.055000", "142131.545000", "142133.035000", "142134.525000", "142136.015000", "142137.505000", "142138.995000", "142140.485000", "142141.975000", "142143.465000", "142144.955000", "142146.445000", "142147.935000", "142149.425000", "142150.915000", "142152.405000", "142153.895000", "142155.385000", "142156.875000", "142158.365000", "142159.855000", "142201.345000", "142202.835000", "142204.325000", "142205.815000", "142207.305000", "142208.795000", "142210.285000", "142211.775000", "142213.265000", "142214.755000", "142216.245000", "142217.735000", "142219.225000", "142220.715000", "142222.205000", "142223.695000", "142225.185000", "142226.675000", "142228.165000"],
      "ContentTime": ["141854.699000", "141854.703000", "141854.706000", "141854.710000", "141854.714000", "141854.717000", "141854.720000", "141854.724000", "141854.727000", "141854.731000", "141854.734000", "141854.745000", "141854.748000", "141854.751000", "141854.755000", "141854.758000", "141854.762000", "141854.765000", "141854.769000", "141854.772000", "141854.775000", "141854.779000", "141854.782000", "141854.786000", "141854.789000", "141854.793000", "141854.796000", "141854.799000", "141854.803000", "141854.806000", "141854.809000", "141854.813000", "141854.816000", "141854.820000", "141914.659000", "141914.663000", "141914.666000", "141914.670000", "141914.673000", "141914.677000", "141914.680000", "141914.684000", "141914.687000", "141914.690000", "141914.694000", "141914.697000", "141914.701000", "141914.704000", "141914.708000", "141914.711000", "141914.715000", "141914.718000", "141914.721000", "141914.725000", "141934.660000", "141934.664000", "141934.667000", "141934.671000", "141934.674000", "141934.678000", "141934.681000", "141934.684000", "141934.688000", "141934.691000", "141934.695000", "141934.698000", "141934.702000", "141934.705000", "141934.708000", "141934.712000", "141934.715000", "141934.719000", "141934.722000", "141934.725000", "141954.660000", "141954.664000", "141954.667000", "141954.671000", "141954.674000", "141954.678000", "141954.685000", "141954.688000", "141954.692000", "141954.695000", "141954.699000", "141954.702000", "141954.705000", "141954.709000", "141954.712000", "141954.716000", "141954.719000", "141954.722000", "141954.727000", "141954.730000", "142014.659000", "142014.663000", "142014.667000", "142014.670000", "142014.674000", "142014.677000", "142014.681000", "142014.684000", "142014.687000", "142014.691000", "142014.694000", "142014.698000", "142014.709000", "142014.712000", "142014.716000", "142014.719000", "142014.723000", "142054.659000", "142054.663000", "142054.667000", "142054.670000", "142054.674000", "142054.677000", "142054.681000", "142054.684000", "142054.688000", "142054.691000", "142054.694000", "142054.698000", "142054.701000", "142054.705000", "142054.708000", "142054.711000", "142054.715000", "142054.719000", "142054.722000", "142054.725000", "142054.729000", "142054.732000", "142054.736000", "142054.739000", "142054.743000", "142054.746000", "142054.749000", "142134.659000", "142134.663000", "142134.667000", "142134.670000", "142134.674000", "142134.677000", "142134.681000", "142134.684000", "142134.688000", "142134.691000", "142134.696000", "142134.701000", "142134.705000", "142134.709000", "142134.712000", "142134.715000", "142134.719000", "142134.722000", "142134.726000", "142134.729000", "142134.732000", "142134.736000", "142134.739000", "142134.743000", "142134.746000", "142134.749000", "142214.660000", "142214.664000", "142214.681000", "142214.684000", "142214.687000", "142214.691000", "142214.694000", "142214.698000", "142214.701000", "142214.704000", "142214.708000", "142214.711000", "142214.715000", "142214.718000", "142214.722000", "142214.725000", "142214.729000", "142214.732000", "142214.736000", "142214.739000", "142214.742000", "142214.746000", "142214.749000", "142214.753000", "142214.756000", "142214.760000", "142214.763000", "142229.874000", "142229.878000", "142229.882000", "142229.885000", "142229.889000", "142229.892000", "142229.895000", "142229.899000", "142229.902000", "142229.906000", "142229.909000"],
      "InstanceCreationTime": ["141854.699000", "141854.703000", "141854.706000", "141854.710000", "141854.714000", "141854.717000", "141854.720000", "141854.724000", "141854.727000", "141854.731000", "141854.734000", "141854.745000", "141854.748000", "141854.751000", "141854.755000", "141854.758000", "141854.762000", "141854.765000", "141854.769000", "141854.772000", "141854.775000", "141854.779000", "141854.782000", "141854.786000", "141854.789000", "141854.793000", "141854.796000", "141854.799000", "141854.803000", "141854.806000", "141854.809000", "141854.813000", "141854.816000", "141854.820000", "141914.659000", "141914.663000", "141914.666000", "141914.670000", "141914.673000", "141914.677000", "141914.680000", "141914.684000", "141914.687000", "141914.690000", "141914.694000", "141914.697000", "141914.701000", "141914.704000", "141914.708000", "141914.711000", "141914.715000", "141914.718000", "141914.721000", "141914.725000", "141934.660000", "141934.664000", "141934.667000", "141934.671000", "141934.674000", "141934.678000", "141934.681000", "141934.684000", "141934.688000", "141934.691000", "141934.695000", "141934.698000", "141934.702000", "141934.705000", "141934.708000", "141934.712000", "141934.715000", "141934.719000", "141934.722000", "141934.725000", "141954.660000", "141954.664000", "141954.667000", "141954.671000", "141954.674000", "141954.678000", "141954.685000", "141954.688000", "141954.692000", "141954.695000", "141954.699000", "141954.702000", "141954.705000", "141954.709000", "141954.712000", "141954.716000", "141954.719000", "141954.722000", "141954.727000", "141954.730000", "142014.659000", "142014.663000", "142014.667000", "142014.670000", "142014.674000", "142014.677000", "142014.681000", "142014.684000", "142014.687000", "142014.691000", "142014.694000", "142014.698000", "142014.709000", "142014.712000", "142014.716000", "142014.719000", "142014.723000", "142054.659000", "142054.663000", "142054.667000", "142054.670000", "142054.674000", "142054.677000", "142054.681000", "142054.684000", "142054.688000", "142054.691000", "142054.694000", "142054.698000", "142054.701000", "142054.705000", "142054.708000", "142054.711000", "142054.715000", "142054.719000", "142054.722000", "142054.725000", "142054.729000", "142054.732000", "142054.736000", "142054.739000", "142054.743000", "142054.746000", "142054.749000", "142134.659000", "142134.663000", "142134.667000", "142134.670000", "142134.674000", "142134.677000", "142134.681000", "142134.684000", "142134.688000", "142134.691000", "142134.696000", "142134.701000", "142134.705000", "142134.709000", "142134.712000", "142134.715000", "142134.719000", "142134.722000", "142134.726000", "142134.729000", "142134.732000", "142134.736000", "142134.739000", "142134.743000", "142134.746000", "142134.749000", "142214.660000", "142214.664000", "142214.681000", "142214.684000", "142214.687000", "142214.691000", "142214.694000", "142214.698000", "142214.701000", "142214.704000", "142214.708000", "142214.711000", "142214.715000", "142214.718000", "142214.722000", "142214.725000", "142214.729000", "142214.732000", "142214.736000", "142214.739000", "142214.742000", "142214.746000", "142214.749000", "142214.753000", "142214.756000", "142214.760000", "142214.763000", "142229.874000", "142229.878000", "142229.882000", "142229.885000", "142229.889000", "142229.892000", "142229.895000", "142229.899000", "142229.902000", "142229.906000", "142229.909000"],
      "InstanceNumber": [1, 2, 3, 4, 5, 6, 7, 8, 9, 10, 11, 12, 13, 14, 15, 16, 17, 18, 19, 20, 21, 22, 23, 24, 25, 26, 27, 28, 29, 30, 31, 32, 33, 34, 35, 36, 37, 38, 39, 40, 41, 42, 43, 44, 45, 46, 47, 48, 49, 50, 51, 52, 53, 54, 55, 56, 57, 58, 59, 60, 61, 62, 63, 64, 65, 66, 67, 68, 69, 70, 71, 72, 73, 74, 75, 76, 77, 78, 79, 80, 81, 82, 83, 84, 85, 86, 87, 88, 89, 90, 91, 92, 93, 94, 95, 96, 97, 98, 99, 100, 101, 102, 103, 104, 105, 106, 107, 108, 109, 110, 111, 112, 113, 114, 115, 116, 117, 118, 119, 120, 121, 122, 123, 124, 125, 126, 127, 128, 129, 130, 131, 132, 133, 134, 135, 136, 137, 138, 139, 140, 141, 142, 143, 144, 145, 146, 147, 148, 149, 150, 151, 152, 153, 154, 155, 156, 157, 158, 159, 160, 161, 162, 163, 164, 165, 166, 167, 168, 169, 170, 171, 172, 173, 174, 175, 176, 177, 178, 179, 180, 181, 182, 183, 184, 185, 186, 187, 188, 189, 190, 191, 192, 193, 194, 195, 196, 197, 198, 199, 200, 201, 202],
      "LargestImagePixelValue": [42263, 40572, 39768, 39327, 38957, 39153, 39020, 38602, 38848, 38764, 38518, 38895, 39080, 39068, 38846, 39226, 39246, 39003, 39010, 39057, 38831, 38764, 38829, 38892, 38808, 38452, 38622, 38656, 38526, 38793, 38725, 39060, 38254, 38518, 38477, 38383, 38735, 38664, 38470, 38516, 38675, 38809, 38657, 38541, 38910, 38454, 38937, 38479, 38883, 38552, 38438, 38848, 38693, 38663, 38677, 38131, 38737, 38977, 38765, 38796, 38720, 38599, 38338, 38521, 38745, 38595, 38853, 38369, 38585, 38598, 38626, 38808, 38615, 38470, 38708, 39003, 39228, 39231, 39236, 38852, 39224, 39302, 38781, 39195, 38547, 39026, 38755, 39602, 39618, 39169, 38831, 38816, 38884, 39296, 39161, 39245, 38914, 38449, 38497, 38796, 39447, 39206, 38843, 38678, 39169, 38716, 39113, 39127, 39300, 39259, 39068, 38621, 38741, 38870, 39187, 39071, 38861, 39027, 38787, 38859, 39489, 38967, 39389, 39070, 38304, 38112, 38763, 38575, 38371, 38622, 38286, 38331, 38251, 38337, 38696, 38424, 38778, 38322, 38572, 38229, 38682, 38535, 38294, 38430, 38460, 38479, 38490, 38113, 38375, 38331, 38138, 38224, 38204, 38437, 38258, 38455, 38320, 38072, 38202, 38281, 38376, 38404, 38106, 38269, 38511, 38548, 38782, 38448, 38415, 38251, 38418, 38880, 38263, 38209, 38111, 38842, 38339, 38519, 38218, 38069, 38348, 37984, 38545, 38166, 38345, 38176, 38605, 38366, 38857, 38448, 38451, 38167, 38785, 38901, 38562, 38733, 38221, 38283, 38310, 38496, 38428, 38644],
      "WindowCenter": [10057.0, 10029.0, 10011.0, 9992.0, 9966.0, 9979.0, 9988.0, 10007.0, 10012.0, 9979.0, 9935.0, 9922.0, 9938.0, 9962.0, 9957.0, 9953.0, 9934.0, 9924.0, 9934.0, 9959.0, 9963.0, 9956.0, 9948.0, 9961.0, 9978.0, 9991.0, 9985.0, 9975.0, 9965.0, 9964.0, 9974.0, 9996.0, 10001.0, 9986.0, 9970.0, 9966.0, 9982.0, 9990.0, 9979.0, 9969.0, 9966.0, 9965.0, 9975.0, 9970.0, 9967.0, 9959.0, 9966.0, 9967.0, 9966.0, 9967.0, 9974.0, 9984.0, 9986.0, 9982.0, 9967.0, 9928.0, 9912.0, 9933.0, 9963.0, 9977.0, 9968.0, 9950.0, 9926.0, 9932.0, 9949.0, 9966.0, 9959.0, 9942.0, 9932.0, 9947.0, 9972.0, 9984.0, 9978.0, 9964.0, 9959.0, 9965.0, 9976.0, 9988.0, 9980.0, 9940.0, 9925.0, 9948.0, 9972.0, 9988.0, 9960.0, 9930.0, 9904.0, 9914.0, 9946.0, 9970.0, 9981.0, 9969.0, 9957.0, 9962.0, 9972.0, 9989.0, 9983.0, 9961.0, 9940.0, 9936.0, 9958.0, 9994.0, 10009.0, 10002.0, 9968.0, 9940.0, 9928.0, 9941.0, 9968.0, 9994.0, 9999.0, 9984.0, 9961.0, 9955.0, 9955.0, 9971.0, 9975.0, 9974.0, 9957.0, 9955.0, 9961.0, 9962.0, 9994.0, 9990.0, 9969.0, 9935.0, 9920.0, 9943.0, 9987.0, 9992.0, 9952.0, 9908.0, 9878.0, 9882.0, 9915.0, 9937.0, 9944.0, 9922.0, 9910.0, 9910.0, 9934.0, 9956.0, 9967.0, 9966.0, 9958.0, 9956.0, 9962.0, 9966.0, 9981.0, 9989.0, 9975.0, 9960.0, 9957.0, 9965.0, 9981.0, 9991.0, 9987.0, 9971.0, 9952.0, 9948.0, 9956.0, 9965.0, 9958.0, 9949.0, 9938.0, 9937.0, 9936.0, 9927.0, 9919.0, 9934.0, 9953.0, 9979.0, 9974.0, 9945.0, 9931.0, 9936.0, 9953.0, 9965.0, 9960.0, 9952.0, 9941.0, 9934.0, 9955.0, 9975.0, 9977.0, 9945.0, 9931.0, 9928.0, 9952.0, 9973.0, 9975.0, 9951.0, 9928.0, 9904.0, 9927.0, 9965.0, 9953.0, 9927.0, 9915.0, 9934.0, 9945.0, 9913.0],
      "WindowWidth": [21385.0, 21302.0, 21252.0, 21201.0, 21139.0, 21167.0, 21190.0, 21230.0, 21243.0, 21167.0, 21065.0, 21031.0, 21070.0, 21125.0, 21119.0, 21104.0, 21059.0, 21035.0, 21061.0, 21116.0, 21128.0, 21113.0, 21096.0, 21122.0, 21162.0, 21194.0, 21183.0, 21156.0, 21133.0, 21133.0, 21157.0, 21204.0, 21218.0, 21184.0, 21146.0, 21136.0, 21170.0, 21189.0, 21167.0, 21141.0, 21133.0, 21131.0, 21156.0, 21149.0, 21137.0, 21119.0, 21134.0, 21136.0, 21135.0, 21136.0, 21154.0, 21177.0, 21184.0, 21171.0, 21134.0, 21050.0, 21006.0, 21052.0, 21125.0, 21162.0, 21141.0, 21096.0, 21046.0, 21059.0, 21097.0, 21135.0, 21119.0, 21082.0, 21058.0, 21091.0, 21148.0, 21175.0, 21164.0, 21133.0, 21118.0, 21133.0, 21155.0, 21182.0, 21163.0, 21072.0, 21036.0, 21088.0, 21147.0, 21182.0, 21119.0, 21048.0, 20988.0, 21010.0, 21081.0, 21141.0, 21167.0, 21140.0, 21111.0, 21121.0, 21146.0, 21186.0, 21171.0, 21122.0, 21070.0, 21059.0, 21109.0, 21193.0, 21229.0, 21213.0, 21133.0, 21068.0, 21041.0, 21072.0, 21136.0, 21194.0, 21210.0, 21174.0, 21122.0, 21104.0, 21106.0, 21143.0, 21155.0, 21148.0, 21111.0, 21106.0, 21119.0, 21122.0, 21193.0, 21185.0, 21137.0, 21062.0, 21029.0, 21080.0, 21180.0, 21193.0, 21105.0, 21001.0, 20929.0, 20939.0, 21015.0, 21070.0, 21084.0, 21035.0, 21005.0, 21007.0, 21061.0, 21113.0, 21139.0, 21136.0, 21117.0, 21111.0, 21121.0, 21133.0, 21166.0, 21182.0, 21155.0, 21120.0, 21113.0, 21133.0, 21168.0, 21193.0, 21185.0, 21147.0, 21100.0, 21091.0, 21110.0, 21129.0, 21114.0, 21092.0, 21065.0, 21064.0, 21061.0, 21042.0, 21023.0, 21057.0, 21105.0, 21163.0, 21153.0, 21090.0, 21054.0, 21063.0, 21103.0, 21134.0, 21124.0, 21106.0, 21077.0, 21065.0, 21108.0, 21155.0, 21160.0, 21091.0, 21053.0, 21044.0, 21102.0, 21153.0, 21157.0, 21102.0, 21045.0, 20991.0, 21041.0, 21127.0, 21102.0, 21042.0, 21012.0, 21059.0, 21082.0, 21019.0]
    },
    "slices": {}
  }
}