{
  "AcquisitionMatrixPE": 104,
  "AcquisitionNumber": 1,
  "AcquisitionTime": "14:17:28.675000",
  "BandwidthPerPixelPhaseEncode": 17.17,
  "BaseResolution": 104,
  "BodyPartExamined": "BRAIN",
  "CoilString": "HC1-7;NC1_2",
  "ConsistencyInfo": "N4_VE11C_LATEST_20160120",
  "ConversionSoftware": "dcm2niix",
  "ConversionSoftwareVersion": "v1.0.20190902",
  "DerivedVendorReportedEchoSpacing": 0.000560011,
  "DeviceSerialNumber": "167006",
  "DwellTime": 2.1e-06,
  "EchoTime": 0.037,
  "EchoTrainLength": 104,
  "EffectiveEchoSpacing": 0.000560011,
  "FlipAngle": 52,
  "ImageComments": "Unaliased_MB4_PE3_LB",
  "ImageOrientationPatientDICOM": [0.999045, 0.0228091, 0.0372639, -0.0149966, 0.980115, -0.197864],
  "ImageType": [
    "ORIGINAL",
    "PRIMARY",
    "P",
    "MB",
    "ND",
    "MOSAIC"
],
  "ImagingFrequency": 123.259,
  "InPlanePhaseEncodingDirectionDICOM": "COL",
  "InstitutionAddress": "Chemin_Queen-Mary_4565_Montreal_District_CA_H3W_1W5",
  "InstitutionName": "IUGM",
  "InstitutionalDepartmentName": "Department",
  "MRAcquisitionType": "2D",
  "MagneticFieldStrength": 3,
  "Manufacturer": "Siemens",
  "ManufacturersModelName": "Prisma_fit",
  "Modality": "MR",
  "MultibandAccelerationFactor": 4,
  "PartialFourier": 1,
  "PatientPosition": "HFS",
  "PercentPhaseFOV": 100,
  "PhaseEncodingDirection": "j",
  "PhaseEncodingSteps": 104,
  "PhaseResolution": 1,
  "PixelBandwidth": 2290,
  "ProcedureStepDescription": "localizers_retinotopy",
  "ProtocolName": "func_task-rings",
  "PulseSequenceDetails": "%CustomerSeq%_cmrr_mbep2d_bold",
  "ReceiveCoilActiveElements": "HC1-7;NC1,2",
  "ReceiveCoilName": "HeadNeck_64",
  "ReconMatrixPE": 104,
  "RepetitionTime": 1.49,
  "SAR": 0.040651,
  "ScanOptions": "FS",
  "ScanningSequence": "EP",
  "SequenceName": "epfid2d1_104",
  "SequenceVariant": "SK_SS",
  "SeriesDescription": "func_task-rings",
  "SeriesNumber": 14,
  "ShimSetting": [634, -7237, -8778, 743, 54, -42, 115, -21],
  "SliceThickness": 2,
  "SliceTiming": [0, 0.785, 0.0975, 0.8825, 0.1975, 0.98, 0.295, 1.0775, 0.3925, 1.1775, 0.49, 1.275, 0.5875, 1.3725, 0.6875, 0, 0.785, 0.0975, 0.8825, 0.1975, 0.98, 0.295, 1.0775, 0.3925, 1.1775, 0.49, 1.275, 0.5875, 1.3725, 0.6875, 0, 0.785, 0.0975, 0.8825, 0.1975, 0.98, 0.295, 1.0775, 0.3925, 1.1775, 0.49, 1.275, 0.5875, 1.3725, 0.6875, 0, 0.785, 0.0975, 0.8825, 0.1975, 0.98, 0.295, 1.0775, 0.3925, 1.1775, 0.49, 1.275, 0.5875, 1.3725, 0.6875],
  "SoftwareVersions": "syngo_MR_E11",
  "SpacingBetweenSlices": 2,
  "StationName": "MRC35049",
  "TaskName": "rings",
  "TotalReadoutTime": 0.0576811,
  "TxRefAmp": 218.213,
  "WipMemBlock": "5843d891-5e3e-43a5-bc52-8bf298ddfab3||Sequence: R016 ve11c/master r/e634e98; Dec 19 2017 11:00:25 by eja",
  "dcmmeta_affine": [
    [-1.9980902671813965, -0.029993226751685143, 0.08207198977470398, 107.93234252929688],
    [-0.045618120580911636, 1.9602292776107788, -0.3942334055900574, -76.30227661132812],
    [0.0745278000831604, 0.3957289457321167, 1.959041714668274, -55.82512283325195],
    [0.0, 0.0, 0.0, 1.0]
],
  "dcmmeta_reorient_transform": [
    [0.0, -1.0, 0.0, 103.0],
    [1.0, 0.0, 0.0, 0.0],
    [0.0, 0.0, 1.0, 0.0],
    [0.0, 0.0, 0.0, 1.0]
],
  "dcmmeta_shape": [104, 104, 60, 202],
  "dcmmeta_slice_dim": 2,
  "dcmmeta_version": 0.6,
  "global": {
    "const": {
      "AcquisitionMatrix": [104, 0, 0, 104],
      "AngioFlag": "N",
      "BitsAllocated": 16,
      "BitsStored": 16,
      "BodyPartExamined": "BRAIN",
      "Columns": 832,
      "EchoNumbers": 1,
      "EchoTime": 37.0,
      "EchoTrainLength": 104,
      "FlipAngle": 52.0,
      "HighBit": 15,
      "ImageOrientationPatient": [0.99904511841775, 0.02280906087615, 0.03726389818068, -0.0149966133742, 0.98011466241349, -0.1978644740963],
      "ImagePositionPatient": [-821.23035438234, -855.72981141284, 101.85217733071],
      "ImageType": [
        "ORIGINAL",
        "PRIMARY",
        "P",
        "MB",
        "ND",
        "MOSAIC"
],
      "ImagedNucleus": "1H",
      "ImagingFrequency": 123.258947,
      "InPlanePhaseEncodingDirection": "COL",
      "LargestImagePixelValue": 4095,
      "MRAcquisitionType": "2D",
      "MagneticFieldStrength": 3.0,
      "Manufacturer": "SIEMENS",
      "ManufacturerModelName": "Prisma_fit",
      "Modality": "MR",
      "NumberOfAverages": 1.0,
      "NumberOfPhaseEncodingSteps": 104,
      "PercentPhaseFieldOfView": 100.0,
      "PercentSampling": 100.0,
      "PerformedProcedureStepStartTime": "140634.761000",
      "PhotometricInterpretation": "MONOCHROME2",
      "PixelBandwidth": 2290.0,
      "PixelRepresentation": 0,
      "PixelSpacing": [2.0, 2.0],
      "ProtocolName": "func_task-rings",
      "RepetitionTime": 1490.0,
      "RescaleIntercept": -4096.0,
      "RescaleSlope": 2.0,
      "RescaleType": "US",
      "Rows": 832,
      "SAR": 0.04065102089378,
      "SamplesPerPixel": 1,
      "ScanOptions": "FS",
      "ScanningSequence": "EP",
      "SequenceName": "epfid2d1_104",
      "SequenceVariant": [
        "SK",
        "SS"
],
      "SeriesDescription": "func_task-rings",
      "SeriesNumber": 14,
      "SeriesTime": "141854.871000",
      "SliceLocation": -35.212306096318,
      "SliceThickness": 2.0,
      "SmallestImagePixelValue": 0,
      "SoftwareVersions": "syngo MR E11",
      "SpacingBetweenSlices": 2.0000000071953,
      "SpecificCharacterSet": "ISO_IR 100",
      "StudyID": "1",
      "StudyTime": "140634.686000",
      "TransmitCoilName": "Body",
      "VariableFlipAngleFlag": "N",
      "WindowCenterWidthExplanation": "Algo1",
      "dBdt": 0.0},
    "slices": {}
  },
  "time": {
    "samples": {
      "AcquisitionNumber": [1, 2, 3, 4, 5, 6, 7, 8, 9, 10, 11, 12, 13, 14, 15, 16, 17, 18, 19, 20, 21, 22, 23, 24, 25, 26, 27, 28, 29, 30, 31, 32, 33, 34, 35, 36, 37, 38, 39, 40, 41, 42, 43, 44, 45, 46, 47, 48, 49, 50, 51, 52, 53, 54, 55, 56, 57, 58, 59, 60, 61, 62, 63, 64, 65, 66, 67, 68, 69, 70, 71, 72, 73, 74, 75, 76, 77, 78, 79, 80, 81, 82, 83, 84, 85, 86, 87, 88, 89, 90, 91, 92, 93, 94, 95, 96, 97, 98, 99, 100, 101, 102, 103, 104, 105, 106, 107, 108, 109, 110, 111, 112, 113, 114, 115, 116, 117, 118, 119, 120, 121, 122, 123, 124, 125, 126, 127, 128, 129, 130, 131, 132, 133, 134, 135, 136, 137, 138, 139, 140, 141, 142, 143, 144, 145, 146, 147, 148, 149, 150, 151, 152, 153, 154, 155, 156, 157, 158, 159, 160, 161, 162, 163, 164, 165, 166, 167, 168, 169, 170, 171, 172, 173, 174, 175, 176, 177, 178, 179, 180, 181, 182, 183, 184, 185, 186, 187, 188, 189, 190, 191, 192, 193, 194, 195, 196, 197, 198, 199, 200, 201, 202],
      "AcquisitionTime": ["141728.675000", "141730.165000", "141731.655000", "141733.145000", "141734.635000", "141736.125000", "141737.615000", "141739.105000", "141740.595000", "141742.085000", "141743.575000", "141745.065000", "141746.555000", "141748.045000", "141749.535000", "141751.025000", "141752.515000", "141754.005000", "141755.495000", "141756.985000", "141758.475000", "141759.965000", "141801.455000", "141802.945000", "141804.435000", "141805.925000", "141807.415000", "141808.905000", "141810.395000", "141811.885000", "141813.375000", "141814.865000", "141816.355000", "141817.845000", "141819.335000", "141820.825000", "141822.315000", "141823.805000", "141825.295000", "141826.785000", "141828.275000", "141829.765000", "141831.255000", "141832.745000", "141834.235000", "141835.725000", "141837.215000", "141838.705000", "141840.195000", "141841.685000", "141843.175000", "141844.665000", "141846.155000", "141847.645000", "141849.135000", "141850.625000", "141852.115000", "141853.605000", "141855.095000", "141856.585000", "141858.075000", "141859.565000", "141901.055000", "141902.545000", "141904.035000", "141905.525000", "141907.015000", "141908.505000", "141909.995000", "141911.485000", "141912.975000", "141914.465000", "141915.955000", "141917.445000", "141918.935000", "141920.425000", "141921.915000", "141923.405000", "141924.895000", "141926.385000", "141927.875000", "141929.365000", "141930.855000", "141932.345000", "141933.835000", "141935.325000", "141936.815000", "141938.305000", "141939.795000", "141941.285000", "141942.775000", "141944.265000", "141945.755000", "141947.245000", "141948.735000", "141950.225000", "141951.715000", "141953.205000", "141954.695000", "141956.185000", "141957.675000", "141959.165000", "142000.655000", "142002.145000", "142003.635000", "142005.125000", "142006.615000", "142008.105000", "142009.595000", "142011.085000", "142012.575000", "142014.065000", "142015.555000", "142017.045000", "142018.535000", "142020.025000", "142021.515000", "142023.005000", "142024.495000", "142025.985000", "142027.475000", "142028.965000", "142030.455000", "142031.945000", "142033.435000", "142034.925000", "142036.415000", "142037.905000", "142039.395000", "142040.885000", "142042.375000", "142043.865000", "142045.355000", "142046.845000", "142048.335000", "142049.825000", "142051.315000", "142052.805000", "142054.295000", "142055.785000", "142057.275000", "142058.765000", "142100.255000", "142101.745000", "142103.235000", "142104.725000", "142106.215000", "142107.705000", "142109.195000", "142110.685000", "142112.175000", "142113.665000", "142115.155000", "142116.645000", "142118.135000", "142119.625000", "142121.115000", "142122.605000", "142124.095000", "142125.585000", "142127.075000", "142128.565000", "142130.055000", "142131.545000", "142133.035000", "142134.525000", "142136.015000", "142137.505000", "142138.995000", "142140.485000", "142141.975000", "142143.465000", "142144.955000", "142146.445000", "142147.935000", "142149.425000", "142150.915000", "142152.405000", "142153.895000", "142155.385000", "142156.875000", "142158.365000", "142159.855000", "142201.345000", "142202.835000", "142204.325000", "142205.815000", "142207.305000", "142208.795000", "142210.285000", "142211.775000", "142213.265000", "142214.755000", "142216.245000", "142217.735000", "142219.225000", "142220.715000", "142222.205000", "142223.695000", "142225.185000", "142226.675000", "142228.165000"],
      "ContentTime": ["141854.874000", "141854.877000", "141854.884000", "141854.886000", "141854.889000", "141854.901000", "141854.903000", "141854.906000", "141854.908000", "141854.911000", "141854.914000", "141854.916000", "141854.919000", "141854.926000", "141854.928000", "141854.931000", "141854.933000", "141854.936000", "141854.938000", "141854.941000", "141854.944000", "141854.946000", "141854.949000", "141854.951000", "141854.954000", "141854.956000", "141854.959000", "141854.961000", "141854.964000", "141854.967000", "141854.969000", "141854.971000", "141854.974000", "141854.977000", "141915.414000", "141915.416000", "141915.427000", "141915.430000", "141915.432000", "141915.435000", "141915.438000", "141915.440000", "141915.443000", "141915.445000", "141915.448000", "141915.450000", "141915.453000", "141915.455000", "141915.458000", "141915.461000", "141915.463000", "141915.466000", "141915.468000", "141915.471000", "141934.762000", "141934.765000", "141934.767000", "141934.770000", "141934.772000", "141934.782000", "141934.785000", "141934.787000", "141934.790000", "141934.792000", "141934.795000", "141934.797000", "141934.800000", "141934.802000", "141934.805000", "141934.808000", "141934.810000", "141934.813000", "141934.815000", "141934.818000", "141954.773000", "141954.775000", "141954.778000", "141954.781000", "141954.783000", "141954.786000", "141954.799000", "141954.802000", "141954.804000", "141954.807000", "141954.809000", "141954.812000", "141954.814000", "141954.817000", "141954.820000", "141954.822000", "141954.825000", "141954.827000", "141954.830000", "141954.832000", "142014.759000", "142014.762000", "142014.765000", "142014.767000", "142014.770000", "142014.772000", "142014.775000", "142014.777000", "142014.780000", "142014.783000", "142014.785000", "142014.788000", "142014.790000", "142014.793000", "142014.795000", "142014.798000", "142014.800000", "142054.813000", "142054.816000", "142054.818000", "142054.821000", "142054.823000", "142054.826000", "142054.829000", "142054.831000", "142054.834000", "142054.836000", "142054.839000", "142054.842000", "142054.844000", "142054.847000", "142054.849000", "142054.852000", "142054.854000", "142054.857000", "142054.860000", "142054.862000", "142054.865000", "142054.867000", "142054.870000", "142054.872000", "142054.875000", "142054.878000", "142054.880000", "142134.803000", "142134.806000", "142134.809000", "142134.811000", "142134.814000", "142134.817000", "142134.819000", "142134.822000", "142134.824000", "142134.827000", "142134.829000", "142134.832000", "142134.835000", "142134.837000", "142134.840000", "142134.842000", "142134.845000", "142134.848000", "142134.850000", "142134.853000", "142134.855000", "142134.858000", "142134.860000", "142134.863000", "142134.875000", "142134.877000", "142214.811000", "142214.814000", "142214.817000", "142214.820000", "142214.822000", "142214.825000", "142214.827000", "142214.830000", "142214.832000", "142214.835000", "142214.838000", "142214.840000", "142214.843000", "142214.845000", "142214.848000", "142214.851000", "142214.853000", "142214.856000", "142214.858000", "142214.861000", "142214.864000", "142214.866000", "142214.869000", "142214.871000", "142214.874000", "142214.876000", "142214.887000", "142229.944000", "142229.948000", "142229.951000", "142229.953000", "142229.956000", "142229.967000", "142229.970000", "142229.972000", "142229.975000", "142229.977000", "142229.980000"],
      "InstanceCreationTime": ["141854.874000", "141854.877000", "141854.884000", "141854.886000", "141854.889000", "141854.901000", "141854.903000", "141854.906000", "141854.908000", "141854.911000", "141854.914000", "141854.916000", "141854.919000", "141854.926000", "141854.928000", "141854.931000", "141854.933000", "141854.936000", "141854.938000", "141854.941000", "141854.944000", "141854.946000", "141854.949000", "141854.951000", "141854.954000", "141854.956000", "141854.959000", "141854.961000", "141854.964000", "141854.967000", "141854.969000", "141854.971000", "141854.974000", "141854.977000", "141915.414000", "141915.416000", "141915.427000", "141915.430000", "141915.432000", "141915.435000", "141915.438000", "141915.440000", "141915.443000", "141915.445000", "141915.448000", "141915.450000", "141915.453000", "141915.455000", "141915.458000", "141915.461000", "141915.463000", "141915.466000", "141915.468000", "141915.471000", "141934.762000", "141934.765000", "141934.767000", "141934.770000", "141934.772000", "141934.782000", "141934.785000", "141934.787000", "141934.790000", "141934.792000", "141934.795000", "141934.797000", "141934.800000", "141934.802000", "141934.805000", "141934.808000", "141934.810000", "141934.813000", "141934.815000", "141934.818000", "141954.773000", "141954.775000", "141954.778000", "141954.781000", "141954.783000", "141954.786000", "141954.799000", "141954.802000", "141954.804000", "141954.807000", "141954.809000", "141954.812000", "141954.814000", "141954.817000", "141954.820000", "141954.822000", "141954.825000", "141954.827000", "141954.830000", "141954.832000", "142014.759000", "142014.762000", "142014.765000", "142014.767000", "142014.770000", "142014.772000", "142014.775000", "142014.777000", "142014.780000", "142014.783000", "142014.785000", "142014.788000", "142014.790000", "142014.793000", "142014.795000", "142014.798000", "142014.800000", "142054.813000", "142054.816000", "142054.818000", "142054.821000", "142054.823000", "142054.826000", "142054.829000", "142054.831000", "142054.834000", "142054.836000", "142054.839000", "142054.842000", "142054.844000", "142054.847000", "142054.849000", "142054.852000", "142054.854000", "142054.857000", "142054.860000", "142054.862000", "142054.865000", "142054.867000", "142054.870000", "142054.872000", "142054.875000", "142054.878000", "142054.880000", "142134.803000", "142134.806000", "142134.809000", "142134.811000", "142134.814000", "142134.817000", "142134.819000", "142134.822000", "142134.824000", "142134.827000", "142134.829000", "142134.832000", "142134.835000", "142134.837000", "142134.840000", "142134.842000", "142134.845000", "142134.848000", "142134.850000", "142134.853000", "142134.855000", "142134.858000", "142134.860000", "142134.863000", "142134.875000", "142134.877000", "142214.811000", "142214.814000", "142214.817000", "142214.820000", "142214.822000", "142214.825000", "142214.827000", "142214.830000", "142214.832000", "142214.835000", "142214.838000", "142214.840000", "142214.843000", "142214.845000", "142214.848000", "142214.851000", "142214.853000", "142214.856000", "142214.858000", "142214.861000", "142214.864000", "142214.866000", "142214.869000", "142214.871000", "142214.874000", "142214.876000", "142214.887000", "142229.944000", "142229.948000", "142229.951000", "142229.953000", "142229.956000", "142229.967000", "142229.970000", "142229.972000", "142229.975000", "142229.977000", "142229.980000"],
      "InstanceNumber": [1, 2, 3, 4, 5, 6, 7, 8, 9, 10, 11, 12, 13, 14, 15, 16, 17, 18, 19, 20, 21, 22, 23, 24, 25, 26, 27, 28, 29, 30, 31, 32, 33, 34, 35, 36, 37, 38, 39, 40, 41, 42, 43, 44, 45, 46, 47, 48, 49, 50, 51, 52, 53, 54, 55, 56, 57, 58, 59, 60, 61, 62, 63, 64, 65, 66, 67, 68, 69, 70, 71, 72, 73, 74, 75, 76, 77, 78, 79, 80, 81, 82, 83, 84, 85, 86, 87, 88, 89, 90, 91, 92, 93, 94, 95, 96, 97, 98, 99, 100, 101, 102, 103, 104, 105, 106, 107, 108, 109, 110, 111, 112, 113, 114, 115, 116, 117, 118, 119, 120, 121, 122, 123, 124, 125, 126, 127, 128, 129, 130, 131, 132, 133, 134, 135, 136, 137, 138, 139, 140, 141, 142, 143, 144, 145, 146, 147, 148, 149, 150, 151, 152, 153, 154, 155, 156, 157, 158, 159, 160, 161, 162, 163, 164, 165, 166, 167, 168, 169, 170, 171, 172, 173, 174, 175, 176, 177, 178, 179, 180, 181, 182, 183, 184, 185, 186, 187, 188, 189, 190, 191, 192, 193, 194, 195, 196, 197, 198, 199, 200, 201, 202],
      "WindowCenter": [4790.0, 4794.0, 4792.0, 4796.0, 4792.0, 4792.0, 4794.0, 4794.0, 4766.0, 4790.0, 4792.0, 4790.0, 4792.0, 4796.0, 4794.0, 4796.0, 4792.0, 4792.0, 4792.0, 4790.0, 4792.0, 4792.0, 4788.0, 4794.0, 4792.0, 4790.0, 4790.0, 4796.0, 4790.0, 4790.0, 4794.0, 4794.0, 4792.0, 4796.0, 4790.0, 4794.0, 4788.0, 4792.0, 4794.0, 4794.0, 4792.0, 4790.0, 4794.0, 4794.0, 4790.0, 4792.0, 4790.0, 4792.0, 4792.0, 4794.0, 4796.0, 4792.0, 4790.0, 4800.0, 4792.0, 4788.0, 4790.0, 4792.0, 4792.0, 4794.0, 4794.0, 4796.0, 4794.0, 4794.0, 4794.0, 4792.0, 4790.0, 4788.0, 4792.0, 4790.0, 4794.0, 4792.0, 4792.0, 4794.0, 4794.0, 4790.0, 4792.0, 4790.0, 4790.0, 4790.0, 4792.0, 4794.0, 4794.0, 4796.0, 4796.0, 4794.0, 4790.0, 4790.0, 4792.0, 4792.0, 4792.0, 4794.0, 4792.0, 4796.0, 4794.0, 4790.0, 4794.0, 4790.0, 4792.0, 4794.0, 4794.0, 4794.0, 4796.0, 4792.0, 4790.0, 4792.0, 4788.0, 4794.0, 4794.0, 4794.0, 4794.0, 4792.0, 4790.0, 4790.0, 4796.0, 4792.0, 4792.0, 4792.0, 4796.0, 4792.0, 4794.0, 4794.0, 4796.0, 4790.0, 4792.0, 4790.0, 4792.0, 4794.0, 4796.0, 4792.0, 4796.0, 4798.0, 4794.0, 4792.0, 4788.0, 4790.0, 4794.0, 4792.0, 4792.0, 4790.0, 4794.0, 4792.0, 4790.0, 4794.0, 4792.0, 4790.0, 4796.0, 4796.0, 4796.0, 4790.0, 4792.0, 4792.0, 4792.0, 4792.0, 4792.0, 4794.0, 4794.0, 4790.0, 4794.0, 4794.0, 4794.0, 4790.0, 4796.0, 4796.0, 4796.0, 4796.0, 4792.0, 4792.0, 4792.0, 4788.0, 4792.0, 4794.0, 4792.0, 4792.0, 4794.0, 4792.0, 4792.0, 4792.0, 4794.0, 4790.0, 4794.0, 4788.0, 4794.0, 4794.0, 4792.0, 4768.0, 4792.0, 4792.0, 4796.0, 4792.0, 4794.0, 4796.0, 4794.0, 4796.0, 4796.0, 4766.0, 4766.0, 4792.0, 4796.0, 4798.0, 4798.0, 4792.0],
      "WindowWidth": [18564.0, 18564.0, 18566.0, 18560.0, 18560.0, 18562.0, 18562.0, 18564.0, 18530.0, 18564.0, 18560.0, 18558.0, 18564.0, 18560.0, 18560.0, 18568.0, 18560.0, 18562.0, 18566.0, 18558.0, 18560.0, 18562.0, 18558.0, 18568.0, 18562.0, 18562.0, 18562.0, 18568.0, 18564.0, 18558.0, 18568.0, 18564.0, 18564.0, 18562.0, 18560.0, 18570.0, 18562.0, 18560.0, 18564.0, 18568.0, 18566.0, 18560.0, 18564.0, 18564.0, 18558.0, 18562.0, 18562.0, 18562.0, 18564.0, 18564.0, 18566.0, 18564.0, 18558.0, 18566.0, 18560.0, 18566.0, 18564.0, 18564.0, 18564.0, 18562.0, 18564.0, 18562.0, 18566.0, 18558.0, 18564.0, 18560.0, 18558.0, 18560.0, 18564.0, 18562.0, 18566.0, 18558.0, 18564.0, 18562.0, 18562.0, 18560.0, 18562.0, 18560.0, 18560.0, 18562.0, 18564.0, 18562.0, 18562.0, 18564.0, 18560.0, 18562.0, 18560.0, 18558.0, 18556.0, 18564.0, 18560.0, 18562.0, 18558.0, 18564.0, 18560.0, 18564.0, 18562.0, 18562.0, 18558.0, 18564.0, 18566.0, 18560.0, 18564.0, 18562.0, 18560.0, 18566.0, 18558.0, 18560.0, 18562.0, 18560.0, 18560.0, 18556.0, 18560.0, 18560.0, 18564.0, 18562.0, 18560.0, 18564.0, 18566.0, 18564.0, 18560.0, 18560.0, 18560.0, 18558.0, 18566.0, 18560.0, 18560.0, 18560.0, 18562.0, 18558.0, 18564.0, 18562.0, 18558.0, 18564.0, 18556.0, 18562.0, 18562.0, 18560.0, 18560.0, 18562.0, 18560.0, 18558.0, 18554.0, 18566.0, 18558.0, 18560.0, 18562.0, 18560.0, 18564.0, 18556.0, 18560.0, 18566.0, 18562.0, 18560.0, 18556.0, 18560.0, 18562.0, 18556.0, 18560.0, 18562.0, 18562.0, 18558.0, 18560.0, 18564.0, 18562.0, 18562.0, 18564.0, 18562.0, 18564.0, 18560.0, 18558.0, 18566.0, 18562.0, 18560.0, 18562.0, 18556.0, 18558.0, 18562.0, 18556.0, 18558.0, 18558.0, 18564.0, 18558.0, 18560.0, 18562.0, 18524.0, 18558.0, 18562.0, 18564.0, 18556.0, 18564.0, 18562.0, 18564.0, 18556.0, 18556.0, 18526.0, 18528.0, 18558.0, 18556.0, 18560.0, 18560.0, 18562.0]
    },
    "slices": {}
  }
}