{
  "AcquisitionMatrixPE": 104,
  "AcquisitionNumber": 1,
  "AcquisitionTime": "14:11:0.130000",
  "BandwidthPerPixelPhaseEncode": 17.17,
  "BaseResolution": 104,
  "BodyPartExamined": "BRAIN",
  "CoilString": "HC1-7;NC1_2",
  "ConsistencyInfo": "N4_VE11C_LATEST_20160120",
  "ConversionSoftware": "dcm2niix",
  "ConversionSoftwareVersion": "v1.0.20190902",
  "DerivedVendorReportedEchoSpacing": 0.000560011,
  "DeviceSerialNumber": "167006",
  "DwellTime": 2.1e-06,
  "EchoTime": 0.037,
  "EchoTrainLength": 104,
  "EffectiveEchoSpacing": 0.000560011,
  "FlipAngle": 52,
  "ImageComments": "Unaliased_MB4_PE3_LB",
  "ImageOrientationPatientDICOM": [0.999045, 0.0228091, 0.0372639, -0.0149966, 0.980115, -0.197864],
  "ImageType": [
    "ORIGINAL",
    "PRIMARY",
    "M",
    "MB",
    "ND",
    "MOSAIC"
],
  "ImagingFrequency": 123.259,
  "InPlanePhaseEncodingDirectionDICOM": "COL",
  "InstitutionAddress": "Chemin_Queen-Mary_4565_Montreal_District_CA_H3W_1W5",
  "InstitutionName": "IUGM",
  "InstitutionalDepartmentName": "Department",
  "MRAcquisitionType": "2D",
  "MagneticFieldStrength": 3,
  "Manufacturer": "Siemens",
  "ManufacturersModelName": "Prisma_fit",
  "Modality": "MR",
  "MultibandAccelerationFactor": 4,
  "PartialFourier": 1,
  "PatientPosition": "HFS",
  "PercentPhaseFOV": 100,
  "PhaseEncodingDirection": "j",
  "PhaseEncodingSteps": 104,
  "PhaseResolution": 1,
  "PixelBandwidth": 2290,
  "ProcedureStepDescription": "localizers_retinotopy",
  "ProtocolName": "func_task-wedges",
  "PulseSequenceDetails": "%CustomerSeq%_cmrr_mbep2d_bold",
  "ReceiveCoilActiveElements": "HC1-7;NC1,2",
  "ReceiveCoilName": "HeadNeck_64",
  "ReconMatrixPE": 104,
  "RepetitionTime": 1.49,
  "SAR": 0.040651,
  "ScanOptions": "FS",
  "ScanningSequence": "EP",
  "SequenceName": "epfid2d1_104",
  "SequenceVariant": "SK_SS",
  "SeriesDescription": "func_task-wedges",
  "SeriesNumber": 10,
  "ShimSetting": [634, -7237, -8778, 743, 54, -42, 115, -21],
  "SliceThickness": 2,
  "SliceTiming": [0, 0.785, 0.0975, 0.8825, 0.1975, 0.98, 0.295, 1.0775, 0.3925, 1.175, 0.49, 1.275, 0.5875, 1.3725, 0.6875, 0, 0.785, 0.0975, 0.8825, 0.1975, 0.98, 0.295, 1.0775, 0.3925, 1.175, 0.49, 1.275, 0.5875, 1.3725, 0.6875, 0, 0.785, 0.0975, 0.8825, 0.1975, 0.98, 0.295, 1.0775, 0.3925, 1.175, 0.49, 1.275, 0.5875, 1.3725, 0.6875, 0, 0.785, 0.0975, 0.8825, 0.1975, 0.98, 0.295, 1.0775, 0.3925, 1.175, 0.49, 1.275, 0.5875, 1.3725, 0.6875],
  "SoftwareVersions": "syngo_MR_E11",
  "SpacingBetweenSlices": 2,
  "StationName": "MRC35049",
  "TaskName": "wedges",
  "TotalReadoutTime": 0.0576811,
  "TxRefAmp": 218.213,
  "WipMemBlock": "e2387a6a-8c4c-4d8c-9a5c-57896535a624||Sequence: R016 ve11c/master r/e634e98; Dec 19 2017 11:00:25 by eja",
  "dcmmeta_affine": [
    [-1.9980902671813965, -0.029993226751685143, 0.08207198977470398, 107.93234252929688],
    [-0.045618120580911636, 1.9602292776107788, -0.3942334055900574, -76.30227661132812],
    [0.0745278000831604, 0.3957289457321167, 1.959041714668274, -55.82512283325195],
    [0.0, 0.0, 0.0, 1.0]
],
  "dcmmeta_reorient_transform": [
    [0.0, -1.0, 0.0, 103.0],
    [1.0, 0.0, 0.0, 0.0],
    [0.0, 0.0, 1.0, 0.0],
    [0.0, 0.0, 0.0, 1.0]
],
  "dcmmeta_shape": [104, 104, 60, 202],
  "dcmmeta_slice_dim": 2,
  "dcmmeta_version": 0.6,
  "global": {
    "const": {
      "AcquisitionMatrix": [104, 0, 0, 104],
      "AngioFlag": "N",
      "BitsAllocated": 16,
      "BitsStored": 16,
      "BodyPartExamined": "BRAIN",
      "Columns": 832,
      "EchoNumbers": 1,
      "EchoTime": 37.0,
      "EchoTrainLength": 104,
      "FlipAngle": 52.0,
      "HighBit": 15,
      "ImageOrientationPatient": [0.99904511841775, 0.02280906087615, 0.03726389818068, -0.0149966133742, 0.98011466241349, -0.1978644740963],
      "ImagePositionPatient": [-821.23035438234, -855.72981141284, 101.85217733071],
      "ImageType": [
        "ORIGINAL",
        "PRIMARY",
        "M",
        "MB",
        "ND",
        "MOSAIC"
],
      "ImagedNucleus": "1H",
      "ImagingFrequency": 123.258942,
      "InPlanePhaseEncodingDirection": "COL",
      "MRAcquisitionType": "2D",
      "MagneticFieldStrength": 3.0,
      "Manufacturer": "SIEMENS",
      "ManufacturerModelName": "Prisma_fit",
      "Modality": "MR",
      "NumberOfAverages": 1.0,
      "NumberOfPhaseEncodingSteps": 104,
      "PercentPhaseFieldOfView": 100.0,
      "PercentSampling": 100.0,
      "PerformedProcedureStepStartTime": "140634.761000",
      "PhotometricInterpretation": "MONOCHROME2",
      "PixelBandwidth": 2290.0,
      "PixelRepresentation": 0,
      "PixelSpacing": [2.0, 2.0],
      "ProtocolName": "func_task-wedges",
      "RepetitionTime": 1490.0,
      "Rows": 832,
      "SAR": 0.04065102089378,
      "SamplesPerPixel": 1,
      "ScanOptions": "FS",
      "ScanningSequence": "EP",
      "SequenceName": "epfid2d1_104",
      "SequenceVariant": [
        "SK",
        "SS"
],
      "SeriesDescription": "func_task-wedges",
      "SeriesNumber": 10,
      "SeriesTime": "141202.903000",
      "SliceLocation": -35.212306096318,
      "SliceThickness": 2.0,
      "SmallestImagePixelValue": 0,
      "SoftwareVersions": "syngo MR E11",
      "SpacingBetweenSlices": 2.0000000071953,
      "SpecificCharacterSet": "ISO_IR 100",
      "StudyID": "1",
      "StudyTime": "140634.686000",
      "TransmitCoilName": "Body",
      "VariableFlipAngleFlag": "N",
      "WindowCenterWidthExplanation": "Algo1",
      "dBdt": 0.0},
    "slices": {}
  },
  "time": {
    "samples": {
      "AcquisitionNumber": [1, 2, 3, 4, 5, 6, 7, 8, 9, 10, 11, 12, 13, 14, 15, 16, 17, 18, 19, 20, 21, 22, 23, 24, 25, 26, 27, 28, 29, 30, 31, 32, 33, 34, 35, 36, 37, 38, 39, 40, 41, 42, 43, 44, 45, 46, 47, 48, 49, 50, 51, 52, 53, 54, 55, 56, 57, 58, 59, 60, 61, 62, 63, 64, 65, 66, 67, 68, 69, 70, 71, 72, 73, 74, 75, 76, 77, 78, 79, 80, 81, 82, 83, 84, 85, 86, 87, 88, 89, 90, 91, 92, 93, 94, 95, 96, 97, 98, 99, 100, 101, 102, 103, 104, 105, 106, 107, 108, 109, 110, 111, 112, 113, 114, 115, 116, 117, 118, 119, 120, 121, 122, 123, 124, 125, 126, 127, 128, 129, 130, 131, 132, 133, 134, 135, 136, 137, 138, 139, 140, 141, 142, 143, 144, 145, 146, 147, 148, 149, 150, 151, 152, 153, 154, 155, 156, 157, 158, 159, 160, 161, 162, 163, 164, 165, 166, 167, 168, 169, 170, 171, 172, 173, 174, 175, 176, 177, 178, 179, 180, 181, 182, 183, 184, 185, 186, 187, 188, 189, 190, 191, 192, 193, 194, 195, 196, 197, 198, 199, 200, 201, 202],
      "AcquisitionTime": ["141100.130000", "141101.620000", "141103.110000", "141104.600000", "141106.090000", "141107.580000", "141109.070000", "141110.560000", "141112.050000", "141113.540000", "141115.030000", "141116.520000", "141118.010000", "141119.500000", "141120.990000", "141122.480000", "141123.970000", "141125.460000", "141126.950000", "141128.440000", "141129.930000", "141131.420000", "141132.910000", "141134.400000", "141135.890000", "141137.380000", "141138.870000", "141140.360000", "141141.850000", "141143.340000", "141144.830000", "141146.320000", "141147.810000", "141149.300000", "141150.790000", "141152.280000", "141153.770000", "141155.260000", "141156.750000", "141158.240000", "141159.730000", "141201.220000", "141202.710000", "141204.200000", "141205.690000", "141207.180000", "141208.670000", "141210.160000", "141211.650000", "141213.140000", "141214.630000", "141216.120000", "141217.610000", "141219.100000", "141220.590000", "141222.080000", "141223.570000", "141225.060000", "141226.550000", "141228.040000", "141229.530000", "141231.020000", "141232.510000", "141234.000000", "141235.490000", "141236.980000", "141238.470000", "141239.960000", "141241.450000", "141242.940000", "141244.430000", "141245.920000", "141247.410000", "141248.900000", "141250.390000", "141251.880000", "141253.370000", "141254.860000", "141256.350000", "141257.840000", "141259.330000", "141300.820000", "141302.310000", "141303.800000", "141305.290000", "141306.780000", "141308.270000", "141309.760000", "141311.250000", "141312.740000", "141314.230000", "141315.720000", "141317.210000", "141318.700000", "141320.190000", "141321.680000", "141323.170000", "141324.660000", "141326.150000", "141327.640000", "141329.130000", "141330.620000", "141332.110000", "141333.600000", "141335.090000", "141336.580000", "141338.070000", "141339.560000", "141341.050000", "141342.540000", "141344.030000", "141345.520000", "141347.010000", "141348.500000", "141349.990000", "141351.480000", "141352.970000", "141354.460000", "141355.950000", "141357.440000", "141358.930000", "141400.420000", "141401.910000", "141403.400000", "141404.890000", "141406.380000", "141407.870000", "141409.360000", "141410.850000", "141412.340000", "141413.830000", "141415.320000", "141416.810000", "141418.300000", "141419.790000", "141421.280000", "141422.770000", "141424.260000", "141425.750000", "141427.240000", "141428.730000", "141430.220000", "141431.710000", "141433.200000", "141434.690000", "141436.180000", "141437.670000", "141439.160000", "141440.650000", "141442.140000", "141443.630000", "141445.120000", "141446.610000", "141448.100000", "141449.590000", "141451.080000", "141452.570000", "141454.060000", "141455.550000", "141457.040000", "141458.530000", "141500.020000", "141501.510000", "141503.000000", "141504.490000", "141505.980000", "141507.470000", "141508.960000", "141510.450000", "141511.940000", "141513.430000", "141514.920000", "141516.410000", "141517.900000", "141519.390000", "141520.880000", "141522.370000", "141523.860000", "141525.350000", "141526.840000", "141528.330000", "141529.820000", "141531.310000", "141532.800000", "141534.290000", "141535.780000", "141537.270000", "141538.760000", "141540.250000", "141541.740000", "141543.230000", "141544.720000", "141546.210000", "141547.700000", "141549.190000", "141550.680000", "141552.170000", "141553.660000", "141555.150000", "141556.640000", "141558.130000", "141559.620000"],
      "ContentTime": ["141202.907000", "141202.911000", "141202.914000", "141202.918000", "141202.921000", "141202.924000", "141202.928000", "141202.931000", "141202.942000", "141222.862000", "141222.866000", "141222.869000", "141222.873000", "141222.876000", "141222.879000", "141222.883000", "141222.886000", "141222.890000", "141222.893000", "141222.896000", "141222.900000", "141222.903000", "141222.907000", "141222.910000", "141222.914000", "141222.917000", "141222.920000", "141222.924000", "141222.927000", "141242.862000", "141242.866000", "141242.869000", "141242.873000", "141242.876000", "141242.879000", "141242.883000", "141242.886000", "141242.890000", "141242.893000", "141242.896000", "141242.900000", "141242.903000", "141242.907000", "141242.910000", "141242.913000", "141242.917000", "141242.920000", "141242.923000", "141242.927000", "141302.862000", "141302.866000", "141302.869000", "141302.873000", "141302.876000", "141302.879000", "141302.883000", "141302.886000", "141302.897000", "141302.900000", "141302.903000", "141302.907000", "141302.910000", "141302.914000", "141302.917000", "141302.921000", "141302.924000", "141302.927000", "141302.931000", "141302.934000", "141322.862000", "141322.866000", "141322.869000", "141322.873000", "141322.876000", "141322.879000", "141322.883000", "141322.887000", "141322.890000", "141322.893000", "141322.898000", "141322.918000", "141322.921000", "141322.925000", "141322.928000", "141322.932000", "141322.935000", "141322.938000", "141322.942000", "141322.945000", "141342.862000", "141342.866000", "141342.869000", "141342.873000", "141342.876000", "141342.880000", "141342.883000", "141342.887000", "141342.890000", "141342.893000", "141342.897000", "141342.900000", "141342.904000", "141342.907000", "141342.910000", "141342.914000", "141342.917000", "141342.920000", "141342.924000", "141342.927000", "141422.863000", "141422.867000", "141422.870000", "141422.876000", "141422.879000", "141422.882000", "141422.886000", "141422.890000", "141422.894000", "141422.897000", "141422.900000", "141422.904000", "141422.907000", "141422.911000", "141422.914000", "141422.918000", "141422.921000", "141422.924000", "141422.928000", "141422.931000", "141422.935000", "141422.938000", "141422.942000", "141422.946000", "141422.958000", "141422.961000", "141502.862000", "141502.866000", "141502.870000", "141502.873000", "141502.877000", "141502.880000", "141502.883000", "141502.887000", "141502.890000", "141502.894000", "141502.897000", "141502.901000", "141502.904000", "141502.908000", "141502.911000", "141502.914000", "141502.918000", "141502.921000", "141502.925000", "141502.928000", "141502.932000", "141502.935000", "141502.938000", "141502.942000", "141502.945000", "141502.948000", "141502.952000", "141542.862000", "141542.866000", "141542.870000", "141542.873000", "141542.877000", "141542.880000", "141542.884000", "141542.887000", "141542.891000", "141542.894000", "141542.898000", "141542.901000", "141542.904000", "141542.908000", "141542.912000", "141542.915000", "141542.918000", "141542.922000", "141542.925000", "141542.929000", "141542.932000", "141542.936000", "141542.939000", "141542.943000", "141542.946000", "141542.949000", "141542.953000", "141601.441000", "141601.445000", "141601.449000", "141601.452000", "141601.456000", "141601.459000", "141601.463000", "141601.466000", "141601.469000", "141601.473000", "141601.476000", "141601.480000", "141601.483000"],
      "InstanceCreationTime": ["141202.907000", "141202.911000", "141202.914000", "141202.918000", "141202.921000", "141202.924000", "141202.928000", "141202.931000", "141202.942000", "141222.862000", "141222.866000", "141222.869000", "141222.873000", "141222.876000", "141222.879000", "141222.883000", "141222.886000", "141222.890000", "141222.893000", "141222.896000", "141222.900000", "141222.903000", "141222.907000", "141222.910000", "141222.914000", "141222.917000", "141222.920000", "141222.924000", "141222.927000", "141242.862000", "141242.866000", "141242.869000", "141242.873000", "141242.876000", "141242.879000", "141242.883000", "141242.886000", "141242.890000", "141242.893000", "141242.896000", "141242.900000", "141242.903000", "141242.907000", "141242.910000", "141242.913000", "141242.917000", "141242.920000", "141242.923000", "141242.927000", "141302.862000", "141302.866000", "141302.869000", "141302.873000", "141302.876000", "141302.879000", "141302.883000", "141302.886000", "141302.897000", "141302.900000", "141302.903000", "141302.907000", "141302.910000", "141302.914000", "141302.917000", "141302.921000", "141302.924000", "141302.927000", "141302.931000", "141302.934000", "141322.862000", "141322.866000", "141322.869000", "141322.873000", "141322.876000", "141322.879000", "141322.883000", "141322.887000", "141322.890000", "141322.893000", "141322.898000", "141322.918000", "141322.921000", "141322.925000", "141322.928000", "141322.932000", "141322.935000", "141322.938000", "141322.942000", "141322.945000", "141342.862000", "141342.866000", "141342.869000", "141342.873000", "141342.876000", "141342.880000", "141342.883000", "141342.887000", "141342.890000", "141342.893000", "141342.897000", "141342.900000", "141342.904000", "141342.907000", "141342.910000", "141342.914000", "141342.917000", "141342.920000", "141342.924000", "141342.927000", "141422.863000", "141422.867000", "141422.870000", "141422.876000", "141422.879000", "141422.882000", "141422.886000", "141422.890000", "141422.894000", "141422.897000", "141422.900000", "141422.904000", "141422.907000", "141422.911000", "141422.914000", "141422.918000", "141422.921000", "141422.924000", "141422.928000", "141422.931000", "141422.935000", "141422.938000", "141422.942000", "141422.946000", "141422.958000", "141422.961000", "141502.862000", "141502.866000", "141502.870000", "141502.873000", "141502.877000", "141502.880000", "141502.883000", "141502.887000", "141502.890000", "141502.894000", "141502.897000", "141502.901000", "141502.904000", "141502.908000", "141502.911000", "141502.914000", "141502.918000", "141502.921000", "141502.925000", "141502.928000", "141502.932000", "141502.935000", "141502.938000", "141502.942000", "141502.945000", "141502.948000", "141502.952000", "141542.862000", "141542.866000", "141542.870000", "141542.873000", "141542.877000", "141542.880000", "141542.884000", "141542.887000", "141542.891000", "141542.894000", "141542.898000", "141542.901000", "141542.904000", "141542.908000", "141542.912000", "141542.915000", "141542.918000", "141542.922000", "141542.925000", "141542.929000", "141542.932000", "141542.936000", "141542.939000", "141542.943000", "141542.946000", "141542.949000", "141542.953000", "141601.441000", "141601.445000", "141601.449000", "141601.452000", "141601.456000", "141601.459000", "141601.463000", "141601.466000", "141601.469000", "141601.473000", "141601.476000", "141601.480000", "141601.483000"],
      "InstanceNumber": [1, 2, 3, 4, 5, 6, 7, 8, 9, 10, 11, 12, 13, 14, 15, 16, 17, 18, 19, 20, 21, 22, 23, 24, 25, 26, 27, 28, 29, 30, 31, 32, 33, 34, 35, 36, 37, 38, 39, 40, 41, 42, 43, 44, 45, 46, 47, 48, 49, 50, 51, 52, 53, 54, 55, 56, 57, 58, 59, 60, 61, 62, 63, 64, 65, 66, 67, 68, 69, 70, 71, 72, 73, 74, 75, 76, 77, 78, 79, 80, 81, 82, 83, 84, 85, 86, 87, 88, 89, 90, 91, 92, 93, 94, 95, 96, 97, 98, 99, 100, 101, 102, 103, 104, 105, 106, 107, 108, 109, 110, 111, 112, 113, 114, 115, 116, 117, 118, 119, 120, 121, 122, 123, 124, 125, 126, 127, 128, 129, 130, 131, 132, 133, 134, 135, 136, 137, 138, 139, 140, 141, 142, 143, 144, 145, 146, 147, 148, 149, 150, 151, 152, 153, 154, 155, 156, 157, 158, 159, 160, 161, 162, 163, 164, 165, 166, 167, 168, 169, 170, 171, 172, 173, 174, 175, 176, 177, 178, 179, 180, 181, 182, 183, 184, 185, 186, 187, 188, 189, 190, 191, 192, 193, 194, 195, 196, 197, 198, 199, 200, 201, 202],
      "LargestImagePixelValue": [42635, 41513, 40288, 40317, 39745, 40140, 39717, 40014, 39848, 39596, 39913, 39845, 39573, 39494, 39891, 39632, 39919, 39780, 39180, 39633, 39781, 39795, 39798, 39433, 39501, 39422, 39998, 39442, 39404, 39416, 39289, 39548, 39605, 39593, 39792, 39837, 39200, 39726, 39415, 39674, 39563, 39569, 39959, 39569, 39869, 39424, 39542, 39520, 39522, 39665, 39665, 39641, 39539, 39837, 39781, 39452, 39220, 39204, 39345, 39289, 39568, 39412, 39862, 39740, 39368, 39260, 39876, 39478, 39522, 39415, 39621, 39310, 38948, 39359, 39511, 39755, 39626, 40074, 39904, 39881, 39671, 40015, 39610, 40414, 39870, 39875, 39607, 39914, 39819, 39854, 39574, 39430, 39575, 39619, 39963, 39922, 39869, 40462, 40174, 40158, 39946, 39687, 40131, 39849, 40046, 40098, 40225, 39867, 39567, 39804, 39568, 39871, 39410, 40391, 40115, 39610, 39674, 39784, 39516, 39649, 39671, 39819, 40056, 39703, 39822, 39897, 39900, 40106, 40003, 39789, 39695, 40433, 39879, 40023, 39695, 40438, 40251, 40023, 40071, 40621, 39867, 39926, 39441, 39619, 40142, 39448, 39103, 38649, 38862, 39279, 39076, 39297, 39673, 39387, 38962, 39508, 39626, 39323, 39571, 39171, 39356, 38798, 39367, 39043, 39176, 39371, 39409, 39442, 39334, 38832, 39394, 39345, 39338, 38757, 39077, 39086, 38866, 39312, 39102, 39129, 39599, 39166, 39051, 39665, 39466, 39570, 39836, 39461, 39755, 39665, 39606, 39959, 39448, 39628, 39310, 39637, 38525, 39038, 39819, 39992, 39808, 39790],
      "WindowCenter": [10073.0, 10041.0, 10025.0, 10008.0, 10000.0, 10000.0, 10001.0, 10013.0, 10008.0, 10008.0, 10007.0, 10006.0, 10000.0, 10009.0, 10016.0, 10015.0, 10009.0, 10009.0, 10002.0, 10008.0, 10016.0, 10016.0, 10002.0, 10002.0, 10017.0, 10019.0, 10018.0, 10010.0, 10019.0, 10034.0, 10037.0, 10037.0, 10037.0, 10035.0, 10035.0, 10042.0, 10046.0, 10046.0, 10030.0, 10012.0, 10008.0, 10014.0, 10032.0, 10037.0, 10036.0, 10006.0, 9993.0, 9991.0, 10017.0, 10034.0, 10028.0, 10010.0, 9993.0, 10005.0, 10024.0, 10042.0, 10039.0, 10022.0, 10003.0, 9993.0, 10015.0, 10042.0, 10060.0, 10047.0, 10016.0, 10003.0, 10009.0, 10027.0, 10053.0, 10057.0, 10049.0, 10027.0, 10015.0, 10026.0, 10035.0, 10039.0, 10038.0, 10033.0, 10016.0, 10017.0, 10026.0, 10034.0, 10029.0, 10033.0, 10021.0, 10010.0, 9985.0, 9982.0, 9997.0, 10022.0, 10028.0, 10022.0, 10009.0, 9999.0, 9998.0, 10006.0, 10006.0, 10006.0, 10014.0, 10018.0, 10018.0, 10019.0, 10012.0, 10016.0, 10018.0, 10025.0, 10017.0, 10000.0, 9999.0, 10007.0, 10008.0, 10008.0, 10001.0, 10012.0, 10014.0, 10014.0, 10010.0, 10008.0, 10000.0, 10007.0, 10016.0, 10034.0, 10029.0, 10005.0, 9992.0, 9998.0, 10013.0, 10015.0, 9999.0, 9981.0, 9972.0, 9993.0, 10008.0, 10017.0, 10001.0, 9983.0, 9975.0, 9987.0, 10005.0, 10030.0, 10033.0, 10021.0, 10002.0, 9991.0, 9992.0, 10017.0, 10043.0, 10039.0, 9999.0, 9968.0, 9948.0, 9953.0, 9977.0, 9990.0, 9984.0, 9975.0, 9955.0, 9946.0, 9961.0, 9979.0, 9992.0, 10003.0, 10011.0, 10011.0, 10004.0, 10003.0, 10012.0, 10034.0, 10030.0, 10021.0, 10005.0, 9996.0, 10000.0, 9997.0, 9994.0, 9986.0, 9986.0, 10001.0, 10010.0, 9997.0, 9985.0, 9975.0, 9984.0, 10007.0, 10010.0, 10001.0, 9983.0, 9967.0, 9978.0, 9996.0, 10014.0, 10023.0, 10009.0, 9992.0, 9987.0, 9983.0, 9994.0, 9992.0, 9974.0, 9969.0, 9979.0, 9990.0],
      "WindowWidth": [21426.0, 21330.0, 21283.0, 21239.0, 21218.0, 21218.0, 21221.0, 21243.0, 21234.0, 21235.0, 21232.0, 21227.0, 21218.0, 21238.0, 21252.0, 21251.0, 21238.0, 21235.0, 21222.0, 21233.0, 21253.0, 21252.0, 21225.0, 21226.0, 21258.0, 21265.0, 21260.0, 21245.0, 21264.0, 21297.0, 21306.0, 21306.0, 21302.0, 21296.0, 21296.0, 21311.0, 21325.0, 21322.0, 21287.0, 21243.0, 21230.0, 21244.0, 21286.0, 21304.0, 21298.0, 21232.0, 21196.0, 21195.0, 21253.0, 21295.0, 21281.0, 21236.0, 21198.0, 21222.0, 21269.0, 21312.0, 21306.0, 21266.0, 21221.0, 21198.0, 21250.0, 21314.0, 21353.0, 21324.0, 21254.0, 21222.0, 21236.0, 21280.0, 21338.0, 21350.0, 21329.0, 21279.0, 21248.0, 21270.0, 21294.0, 21307.0, 21301.0, 21283.0, 21245.0, 21247.0, 21271.0, 21290.0, 21280.0, 21285.0, 21262.0, 21236.0, 21181.0, 21174.0, 21208.0, 21266.0, 21283.0, 21268.0, 21232.0, 21207.0, 21207.0, 21225.0, 21223.0, 21225.0, 21242.0, 21254.0, 21256.0, 21257.0, 21240.0, 21249.0, 21256.0, 21270.0, 21251.0, 21211.0, 21209.0, 21228.0, 21231.0, 21229.0, 21218.0, 21238.0, 21242.0, 21245.0, 21238.0, 21234.0, 21217.0, 21230.0, 21252.0, 21292.0, 21281.0, 21226.0, 21194.0, 21206.0, 21242.0, 21245.0, 21209.0, 21168.0, 21146.0, 21193.0, 21232.0, 21253.0, 21217.0, 21178.0, 21159.0, 21186.0, 21226.0, 21283.0, 21293.0, 21264.0, 21219.0, 21189.0, 21191.0, 21249.0, 21316.0, 21307.0, 21215.0, 21136.0, 21092.0, 21102.0, 21158.0, 21191.0, 21182.0, 21155.0, 21106.0, 21089.0, 21125.0, 21166.0, 21199.0, 21225.0, 21241.0, 21238.0, 21222.0, 21218.0, 21239.0, 21289.0, 21284.0, 21261.0, 21222.0, 21201.0, 21211.0, 21209.0, 21200.0, 21179.0, 21180.0, 21214.0, 21235.0, 21208.0, 21176.0, 21153.0, 21176.0, 21230.0, 21234.0, 21212.0, 21169.0, 21136.0, 21158.0, 21202.0, 21243.0, 21264.0, 21232.0, 21193.0, 21180.0, 21167.0, 21198.0, 21190.0, 21150.0, 21133.0, 21159.0, 21187.0]
    },
    "slices": {}
  }
}