{
  "AcquisitionMatrixPE": 104,
  "AcquisitionNumber": 1,
  "AcquisitionTime": "16:29:13.122500",
  "BandwidthPerPixelPhaseEncode": 17.17,
  "BaseResolution": 104,
  "BodyPartExamined": "BRAIN",
  "CoilString": "HC1-7;NC1_2",
  "ConsistencyInfo": "N4_VE11C_LATEST_20160120",
  "ConversionSoftware": "dcm2niix",
  "ConversionSoftwareVersion": "v1.0.20190902",
  "DerivedVendorReportedEchoSpacing": 0.000560011,
  "DeviceSerialNumber": "167006",
  "DwellTime": 2.1e-06,
  "EchoTime": 0.037,
  "EchoTrainLength": 104,
  "EffectiveEchoSpacing": 0.000560011,
  "FlipAngle": 52,
  "ImageComments": "Unaliased_MB4_PE3_LB",
  "ImageOrientationPatientDICOM": [0.996953, -0.0681882, 0.0378858, 0.0767114, 0.945133, -0.317553],
  "ImageType": [
    "ORIGINAL",
    "PRIMARY",
    "P",
    "MB",
    "ND",
    "MOSAIC"
],
  "ImagingFrequency": 123.259,
  "InPlanePhaseEncodingDirectionDICOM": "COL",
  "InstitutionAddress": "Chemin_Queen-Mary_4565_Montreal_District_CA_H3W_1W5",
  "InstitutionName": "IUGM",
  "InstitutionalDepartmentName": "Department",
  "MRAcquisitionType": "2D",
  "MagneticFieldStrength": 3,
  "Manufacturer": "Siemens",
  "ManufacturersModelName": "Prisma_fit",
  "Modality": "MR",
  "MultibandAccelerationFactor": 4,
  "PartialFourier": 1,
  "PatientPosition": "HFS",
  "PercentPhaseFOV": 100,
  "PhaseEncodingDirection": "j",
  "PhaseEncodingSteps": 104,
  "PhaseResolution": 1,
  "PixelBandwidth": 2290,
  "ProcedureStepDescription": "localizers_retinotopy",
  "ProtocolName": "func_task-bars",
  "PulseSequenceDetails": "%CustomerSeq%_cmrr_mbep2d_bold",
  "ReceiveCoilActiveElements": "HC1-7;NC1,2",
  "ReceiveCoilName": "HeadNeck_64",
  "ReconMatrixPE": 104,
  "RepetitionTime": 1.49,
  "SAR": 0.0367112,
  "ScanOptions": "FS",
  "ScanningSequence": "EP",
  "SequenceName": "epfid2d1_104",
  "SequenceVariant": "SK_SS",
  "SeriesDescription": "func_task-bars",
  "SeriesNumber": 17,
  "ShimSetting": [631, -7265, -8808, 610, -6, -198, 2, -24],
  "SliceThickness": 2,
  "SliceTiming": [0, 0.785, 0.1, 0.8825, 0.1975, 0.98, 0.295, 1.0775, 0.3925, 1.1775, 0.49, 1.275, 0.59, 1.3725, 0.6875, 0, 0.785, 0.1, 0.8825, 0.1975, 0.98, 0.295, 1.0775, 0.3925, 1.1775, 0.49, 1.275, 0.59, 1.3725, 0.6875, 0, 0.785, 0.1, 0.8825, 0.1975, 0.98, 0.295, 1.0775, 0.3925, 1.1775, 0.49, 1.275, 0.59, 1.3725, 0.6875, 0, 0.785, 0.1, 0.8825, 0.1975, 0.98, 0.295, 1.0775, 0.3925, 1.1775, 0.49, 1.275, 0.59, 1.3725, 0.6875],
  "SoftwareVersions": "syngo_MR_E11",
  "SpacingBetweenSlices": 2,
  "StationName": "MRC35049",
  "TaskName": "bars",
  "TotalReadoutTime": 0.0576811,
  "TxRefAmp": 238.645,
  "WipMemBlock": "3c1891b9-27c8-4b7b-9f9e-f3c68935210d||Sequence: R016 ve11c/master r/e634e98; Dec 19 2017 11:00:25 by eja",
  "dcmmeta_affine": [
    [-1.993905782699585, 0.15342272818088531, 0.02830752730369568, 99.45114135742188],
    [0.13637638092041016, 1.8902653455734253, -0.638982355594635, -72.54688262939453],
    [0.07577157765626907, 0.6351050138473511, 1.8949670791625977, -64.11993408203125],
    [0.0, 0.0, 0.0, 1.0]
],
  "dcmmeta_reorient_transform": [
    [0.0, -1.0, 0.0, 103.0],
    [1.0, 0.0, 0.0, 0.0],
    [0.0, 0.0, 1.0, 0.0],
    [0.0, 0.0, 0.0, 1.0]
],
  "dcmmeta_shape": [104, 104, 60, 202],
  "dcmmeta_slice_dim": 2,
  "dcmmeta_version": 0.6,
  "global": {
    "const": {
      "AcquisitionMatrix": [104, 0, 0, 104],
      "AngioFlag": "N",
      "BitsAllocated": 16,
      "BitsStored": 16,
      "BodyPartExamined": "BRAIN",
      "Columns": 832,
      "EchoNumbers": 1,
      "EchoTime": 37.0,
      "EchoTrainLength": 104,
      "FlipAngle": 52.0,
      "HighBit": 15,
      "ImageOrientationPatient": [0.99695287635127, -0.0681881913602, 0.0378857874929, 0.07671136368046, 0.9451326693868, -0.3175525215457],
      "ImagePositionPatient": [-896.8812504362, -760.56602692477, 204.89326731816],
      "ImageType": [
        "ORIGINAL",
        "PRIMARY",
        "P",
        "MB",
        "ND",
        "MOSAIC"
],
      "ImagedNucleus": "1H",
      "ImagingFrequency": 123.258913,
      "InPlanePhaseEncodingDirection": "COL",
      "LargestImagePixelValue": 4095,
      "MRAcquisitionType": "2D",
      "MagneticFieldStrength": 3.0,
      "Manufacturer": "SIEMENS",
      "ManufacturerModelName": "Prisma_fit",
      "Modality": "MR",
      "NumberOfAverages": 1.0,
      "NumberOfPhaseEncodingSteps": 104,
      "PercentPhaseFieldOfView": 100.0,
      "PercentSampling": 100.0,
      "PerformedProcedureStepStartTime": "160956.053000",
      "PhotometricInterpretation": "MONOCHROME2",
      "PixelBandwidth": 2290.0,
      "PixelRepresentation": 0,
      "PixelSpacing": [2.0, 2.0],
      "ProtocolName": "func_task-bars",
      "RepetitionTime": 1490.0,
      "RescaleIntercept": -4096.0,
      "RescaleSlope": 2.0,
      "RescaleType": "US",
      "Rows": 832,
      "SAR": 0.03671124539557,
      "SamplesPerPixel": 1,
      "ScanOptions": "FS",
      "ScanningSequence": "EP",
      "SequenceName": "epfid2d1_104",
      "SequenceVariant": [
        "SK",
        "SS"
],
      "SeriesDescription": "func_task-bars",
      "SeriesNumber": 17,
      "SeriesTime": "163033.556000",
      "SliceLocation": -36.16688621667,
      "SliceThickness": 2.0,
      "SmallestImagePixelValue": 0,
      "SoftwareVersions": "syngo MR E11",
      "SpacingBetweenSlices": 2.0000000059722,
      "SpecificCharacterSet": "ISO_IR 100",
      "StudyID": "1",
      "StudyTime": "160955.989000",
      "TransmitCoilName": "Body",
      "VariableFlipAngleFlag": "N",
      "WindowCenterWidthExplanation": "Algo1",
      "dBdt": 0.0},
    "slices": {}
  },
  "time": {
    "samples": {
      "AcquisitionNumber": [1, 2, 3, 4, 5, 6, 7, 8, 9, 10, 11, 12, 13, 14, 15, 16, 17, 18, 19, 20, 21, 22, 23, 24, 25, 26, 27, 28, 29, 30, 31, 32, 33, 34, 35, 36, 37, 38, 39, 40, 41, 42, 43, 44, 45, 46, 47, 48, 49, 50, 51, 52, 53, 54, 55, 56, 57, 58, 59, 60, 61, 62, 63, 64, 65, 66, 67, 68, 69, 70, 71, 72, 73, 74, 75, 76, 77, 78, 79, 80, 81, 82, 83, 84, 85, 86, 87, 88, 89, 90, 91, 92, 93, 94, 95, 96, 97, 98, 99, 100, 101, 102, 103, 104, 105, 106, 107, 108, 109, 110, 111, 112, 113, 114, 115, 116, 117, 118, 119, 120, 121, 122, 123, 124, 125, 126, 127, 128, 129, 130, 131, 132, 133, 134, 135, 136, 137, 138, 139, 140, 141, 142, 143, 144, 145, 146, 147, 148, 149, 150, 151, 152, 153, 154, 155, 156, 157, 158, 159, 160, 161, 162, 163, 164, 165, 166, 167, 168, 169, 170, 171, 172, 173, 174, 175, 176, 177, 178, 179, 180, 181, 182, 183, 184, 185, 186, 187, 188, 189, 190, 191, 192, 193, 194, 195, 196, 197, 198, 199, 200, 201, 202],
      "AcquisitionTime": ["162913.122500", "162914.612500", "162916.102500", "162917.592500", "162919.082500", "162920.572500", "162922.062500", "162923.552500", "162925.042500", "162926.532500", "162928.022500", "162929.512500", "162931.002500", "162932.492500", "162933.982500", "162935.472500", "162936.962500", "162938.452500", "162939.942500", "162941.432500", "162942.922500", "162944.412500", "162945.902500", "162947.392500", "162948.882500", "162950.372500", "162951.862500", "162953.352500", "162954.842500", "162956.332500", "162957.822500", "162959.312500", "163000.802500", "163002.292500", "163003.782500", "163005.272500", "163006.762500", "163008.252500", "163009.742500", "163011.232500", "163012.722500", "163014.212500", "163015.702500", "163017.192500", "163018.682500", "163020.172500", "163021.662500", "163023.152500", "163024.642500", "163026.132500", "163027.622500", "163029.112500", "163030.602500", "163032.092500", "163033.582500", "163035.072500", "163036.562500", "163038.052500", "163039.542500", "163041.032500", "163042.522500", "163044.012500", "163045.502500", "163046.992500", "163048.482500", "163049.972500", "163051.462500", "163052.952500", "163054.442500", "163055.932500", "163057.422500", "163058.912500", "163100.402500", "163101.892500", "163103.382500", "163104.872500", "163106.362500", "163107.852500", "163109.342500", "163110.832500", "163112.322500", "163113.812500", "163115.302500", "163116.792500", "163118.282500", "163119.772500", "163121.262500", "163122.752500", "163124.242500", "163125.732500", "163127.222500", "163128.712500", "163130.202500", "163131.692500", "163133.182500", "163134.672500", "163136.162500", "163137.652500", "163139.142500", "163140.632500", "163142.122500", "163143.612500", "163145.102500", "163146.592500", "163148.082500", "163149.572500", "163151.062500", "163152.552500", "163154.042500", "163155.532500", "163157.022500", "163158.512500", "163200.002500", "163201.492500", "163202.982500", "163204.472500", "163205.962500", "163207.452500", "163208.942500", "163210.432500", "163211.922500", "163213.412500", "163214.902500", "163216.392500", "163217.882500", "163219.372500", "163220.862500", "163222.352500", "163223.842500", "163225.332500", "163226.822500", "163228.312500", "163229.802500", "163231.292500", "163232.782500", "163234.272500", "163235.762500", "163237.252500", "163238.742500", "163240.232500", "163241.722500", "163243.212500", "163244.702500", "163246.192500", "163247.682500", "163249.172500", "163250.662500", "163252.152500", "163253.642500", "163255.132500", "163256.622500", "163258.112500", "163259.602500", "163301.092500", "163302.582500", "163304.072500", "163305.562500", "163307.052500", "163308.542500", "163310.032500", "163311.522500", "163313.012500", "163314.502500", "163315.992500", "163317.482500", "163318.972500", "163320.462500", "163321.952500", "163323.442500", "163324.932500", "163326.422500", "163327.912500", "163329.402500", "163330.892500", "163332.382500", "163333.872500", "163335.362500", "163336.852500", "163338.342500", "163339.832500", "163341.322500", "163342.812500", "163344.302500", "163345.792500", "163347.282500", "163348.772500", "163350.262500", "163351.752500", "163353.242500", "163354.732500", "163356.222500", "163357.712500", "163359.202500", "163400.692500", "163402.182500", "163403.672500", "163405.162500", "163406.652500", "163408.142500", "163409.632500", "163411.122500", "163412.612500"],
      "ContentTime": ["163033.558000", "163033.561000", "163033.564000", "163033.566000", "163033.569000", "163033.571000", "163033.574000", "163033.576000", "163033.579000", "163033.581000", "163033.588000", "163033.591000", "163033.593000", "163033.596000", "163033.598000", "163033.601000", "163033.603000", "163033.606000", "163033.608000", "163033.611000", "163033.613000", "163033.616000", "163033.618000", "163033.620000", "163033.623000", "163053.539000", "163053.541000", "163053.554000", "163053.557000", "163053.559000", "163053.562000", "163053.564000", "163053.566000", "163053.569000", "163053.571000", "163053.574000", "163053.576000", "163053.579000", "163053.581000", "163053.584000", "163053.586000", "163053.592000", "163053.594000", "163053.596000", "163053.599000", "163113.554000", "163113.557000", "163113.559000", "163113.562000", "163113.565000", "163113.567000", "163113.570000", "163113.572000", "163113.575000", "163113.577000", "163113.580000", "163113.582000", "163113.585000", "163113.587000", "163113.590000", "163113.592000", "163113.595000", "163113.597000", "163113.600000", "163113.602000", "163133.530000", "163133.533000", "163133.536000", "163133.538000", "163133.541000", "163133.543000", "163133.546000", "163133.548000", "163133.551000", "163133.553000", "163133.556000", "163133.558000", "163133.561000", "163133.563000", "163133.566000", "163133.568000", "163133.571000", "163133.573000", "163133.576000", "163133.578000", "163153.524000", "163153.526000", "163153.529000", "163153.531000", "163153.534000", "163153.536000", "163153.539000", "163153.541000", "163153.544000", "163153.546000", "163153.549000", "163153.551000", "163153.554000", "163153.556000", "163153.559000", "163153.561000", "163153.564000", "163153.566000", "163153.569000", "163153.572000", "163233.555000", "163233.558000", "163233.561000", "163233.563000", "163233.566000", "163233.568000", "163233.571000", "163233.573000", "163233.579000", "163233.582000", "163233.584000", "163233.587000", "163233.589000", "163233.592000", "163233.594000", "163233.597000", "163233.600000", "163233.602000", "163233.605000", "163233.607000", "163233.610000", "163233.612000", "163233.615000", "163233.617000", "163233.620000", "163233.623000", "163233.625000", "163233.628000", "163313.540000", "163313.542000", "163313.545000", "163313.547000", "163313.550000", "163313.553000", "163313.555000", "163313.558000", "163313.560000", "163313.563000", "163313.565000", "163313.568000", "163313.570000", "163313.573000", "163313.576000", "163313.578000", "163313.581000", "163313.583000", "163313.586000", "163313.599000", "163313.601000", "163313.604000", "163313.606000", "163313.609000", "163313.611000", "163313.614000", "163313.617000", "163353.547000", "163353.550000", "163353.553000", "163353.555000", "163353.558000", "163353.560000", "163353.563000", "163353.565000", "163353.568000", "163353.571000", "163353.573000", "163353.576000", "163353.578000", "163353.581000", "163353.583000", "163353.586000", "163353.588000", "163353.591000", "163353.593000", "163353.596000", "163353.599000", "163353.601000", "163353.604000", "163353.606000", "163353.609000", "163353.611000", "163353.614000", "163415.661000", "163415.664000", "163415.667000", "163415.669000", "163415.672000", "163415.674000", "163415.677000", "163415.679000", "163415.682000", "163415.684000", "163415.687000", "163415.689000", "163415.692000", "163415.694000", "163415.697000"],
      "InstanceCreationTime": ["163033.558000", "163033.561000", "163033.564000", "163033.566000", "163033.569000", "163033.571000", "163033.574000", "163033.576000", "163033.579000", "163033.581000", "163033.588000", "163033.591000", "163033.593000", "163033.596000", "163033.598000", "163033.601000", "163033.603000", "163033.606000", "163033.608000", "163033.611000", "163033.613000", "163033.616000", "163033.618000", "163033.620000", "163033.623000", "163053.539000", "163053.541000", "163053.554000", "163053.557000", "163053.559000", "163053.562000", "163053.564000", "163053.566000", "163053.569000", "163053.571000", "163053.574000", "163053.576000", "163053.579000", "163053.581000", "163053.584000", "163053.586000", "163053.592000", "163053.594000", "163053.596000", "163053.599000", "163113.554000", "163113.557000", "163113.559000", "163113.562000", "163113.565000", "163113.567000", "163113.570000", "163113.572000", "163113.575000", "163113.577000", "163113.580000", "163113.582000", "163113.585000", "163113.587000", "163113.590000", "163113.592000", "163113.595000", "163113.597000", "163113.600000", "163113.602000", "163133.530000", "163133.533000", "163133.536000", "163133.538000", "163133.541000", "163133.543000", "163133.546000", "163133.548000", "163133.551000", "163133.553000", "163133.556000", "163133.558000", "163133.561000", "163133.563000", "163133.566000", "163133.568000", "163133.571000", "163133.573000", "163133.576000", "163133.578000", "163153.524000", "163153.526000", "163153.529000", "163153.531000", "163153.534000", "163153.536000", "163153.539000", "163153.541000", "163153.544000", "163153.546000", "163153.549000", "163153.551000", "163153.554000", "163153.556000", "163153.559000", "163153.561000", "163153.564000", "163153.566000", "163153.569000", "163153.572000", "163233.555000", "163233.558000", "163233.561000", "163233.563000", "163233.566000", "163233.568000", "163233.571000", "163233.573000", "163233.579000", "163233.582000", "163233.584000", "163233.587000", "163233.589000", "163233.592000", "163233.594000", "163233.597000", "163233.600000", "163233.602000", "163233.605000", "163233.607000", "163233.610000", "163233.612000", "163233.615000", "163233.617000", "163233.620000", "163233.623000", "163233.625000", "163233.628000", "163313.540000", "163313.542000", "163313.545000", "163313.547000", "163313.550000", "163313.553000", "163313.555000", "163313.558000", "163313.560000", "163313.563000", "163313.565000", "163313.568000", "163313.570000", "163313.573000", "163313.576000", "163313.578000", "163313.581000", "163313.583000", "163313.586000", "163313.599000", "163313.601000", "163313.604000", "163313.606000", "163313.609000", "163313.611000", "163313.614000", "163313.617000", "163353.547000", "163353.550000", "163353.553000", "163353.555000", "163353.558000", "163353.560000", "163353.563000", "163353.565000", "163353.568000", "163353.571000", "163353.573000", "163353.576000", "163353.578000", "163353.581000", "163353.583000", "163353.586000", "163353.588000", "163353.591000", "163353.593000", "163353.596000", "163353.599000", "163353.601000", "163353.604000", "163353.606000", "163353.609000", "163353.611000", "163353.614000", "163415.661000", "163415.664000", "163415.667000", "163415.669000", "163415.672000", "163415.674000", "163415.677000", "163415.679000", "163415.682000", "163415.684000", "163415.687000", "163415.689000", "163415.692000", "163415.694000", "163415.697000"],
      "InstanceNumber": [1, 2, 3, 4, 5, 6, 7, 8, 9, 10, 11, 12, 13, 14, 15, 16, 17, 18, 19, 20, 21, 22, 23, 24, 25, 26, 27, 28, 29, 30, 31, 32, 33, 34, 35, 36, 37, 38, 39, 40, 41, 42, 43, 44, 45, 46, 47, 48, 49, 50, 51, 52, 53, 54, 55, 56, 57, 58, 59, 60, 61, 62, 63, 64, 65, 66, 67, 68, 69, 70, 71, 72, 73, 74, 75, 76, 77, 78, 79, 80, 81, 82, 83, 84, 85, 86, 87, 88, 89, 90, 91, 92, 93, 94, 95, 96, 97, 98, 99, 100, 101, 102, 103, 104, 105, 106, 107, 108, 109, 110, 111, 112, 113, 114, 115, 116, 117, 118, 119, 120, 121, 122, 123, 124, 125, 126, 127, 128, 129, 130, 131, 132, 133, 134, 135, 136, 137, 138, 139, 140, 141, 142, 143, 144, 145, 146, 147, 148, 149, 150, 151, 152, 153, 154, 155, 156, 157, 158, 159, 160, 161, 162, 163, 164, 165, 166, 167, 168, 169, 170, 171, 172, 173, 174, 175, 176, 177, 178, 179, 180, 181, 182, 183, 184, 185, 186, 187, 188, 189, 190, 191, 192, 193, 194, 195, 196, 197, 198, 199, 200, 201, 202],
      "WindowCenter": [4822.0, 4820.0, 4804.0, 4826.0, 4822.0, 4820.0, 4824.0, 4824.0, 4816.0, 4824.0, 4824.0, 4822.0, 4798.0, 4800.0, 4828.0, 4822.0, 4820.0, 4822.0, 4818.0, 4820.0, 4824.0, 4800.0, 4824.0, 4828.0, 4820.0, 4820.0, 4822.0, 4796.0, 4824.0, 4826.0, 4830.0, 4804.0, 4822.0, 4824.0, 4826.0, 4826.0, 4820.0, 4822.0, 4820.0, 4824.0, 4824.0, 4824.0, 4808.0, 4826.0, 4826.0, 4822.0, 4798.0, 4822.0, 4824.0, 4796.0, 4822.0, 4824.0, 4804.0, 4806.0, 4802.0, 4828.0, 4828.0, 4798.0, 4822.0, 4822.0, 4796.0, 4802.0, 4800.0, 4822.0, 4826.0, 4828.0, 4830.0, 4824.0, 4824.0, 4824.0, 4800.0, 4798.0, 4808.0, 4804.0, 4820.0, 4800.0, 4824.0, 4804.0, 4804.0, 4806.0, 4824.0, 4824.0, 4822.0, 4796.0, 4798.0, 4822.0, 4824.0, 4806.0, 4802.0, 4798.0, 4822.0, 4794.0, 4826.0, 4828.0, 4826.0, 4820.0, 4796.0, 4798.0, 4824.0, 4802.0, 4800.0, 4804.0, 4806.0, 4800.0, 4794.0, 4798.0, 4822.0, 4798.0, 4820.0, 4822.0, 4826.0, 4804.0, 4802.0, 4802.0, 4824.0, 4806.0, 4830.0, 4804.0, 4796.0, 4820.0, 4820.0, 4818.0, 4822.0, 4822.0, 4826.0, 4802.0, 4804.0, 4802.0, 4804.0, 4806.0, 4802.0, 4802.0, 4804.0, 4798.0, 4798.0, 4802.0, 4806.0, 4808.0, 4804.0, 4806.0, 4798.0, 4800.0, 4822.0, 4822.0, 4800.0, 4806.0, 4804.0, 4810.0, 4800.0, 4794.0, 4796.0, 4818.0, 4824.0, 4824.0, 4806.0, 4804.0, 4782.0, 4802.0, 4808.0, 4800.0, 4796.0, 4828.0, 4826.0, 4800.0, 4798.0, 4806.0, 4804.0, 4802.0, 4806.0, 4826.0, 4800.0, 4822.0, 4824.0, 4798.0, 4824.0, 4804.0, 4810.0, 4806.0, 4828.0, 4806.0, 4808.0, 4804.0, 4798.0, 4796.0, 4796.0, 4796.0, 4800.0, 4798.0, 4804.0, 4802.0, 4802.0, 4800.0, 4804.0, 4796.0, 4798.0, 4802.0, 4800.0, 4796.0, 4800.0, 4800.0, 4802.0, 4800.0],
      "WindowWidth": [18652.0, 18656.0, 18640.0, 18674.0, 18650.0, 18640.0, 18628.0, 18630.0, 18638.0, 18664.0, 18662.0, 18664.0, 18628.0, 18630.0, 18672.0, 18654.0, 18634.0, 18634.0, 18632.0, 18652.0, 18668.0, 18636.0, 18666.0, 18672.0, 18652.0, 18644.0, 18644.0, 18608.0, 18654.0, 18662.0, 18660.0, 18626.0, 18658.0, 18668.0, 18656.0, 18656.0, 18646.0, 18650.0, 18648.0, 18656.0, 18654.0, 18670.0, 18650.0, 18674.0, 18670.0, 18654.0, 18604.0, 18624.0, 18630.0, 18612.0, 18654.0, 18662.0, 18642.0, 18642.0, 18636.0, 18672.0, 18666.0, 18614.0, 18644.0, 18636.0, 18614.0, 18618.0, 18626.0, 18656.0, 18664.0, 18668.0, 18670.0, 18670.0, 18668.0, 18662.0, 18620.0, 18622.0, 18640.0, 18628.0, 18634.0, 18598.0, 18632.0, 18630.0, 18640.0, 18642.0, 18660.0, 18656.0, 18652.0, 18618.0, 18618.0, 18648.0, 18664.0, 18646.0, 18632.0, 18624.0, 18644.0, 18618.0, 18668.0, 18676.0, 18664.0, 18644.0, 18604.0, 18616.0, 18670.0, 18634.0, 18626.0, 18638.0, 18642.0, 18622.0, 18610.0, 18620.0, 18646.0, 18614.0, 18650.0, 18654.0, 18668.0, 18636.0, 18636.0, 18634.0, 18664.0, 18638.0, 18678.0, 18636.0, 18614.0, 18634.0, 18634.0, 18638.0, 18654.0, 18662.0, 18672.0, 18640.0, 18634.0, 18638.0, 18638.0, 18640.0, 18632.0, 18626.0, 18622.0, 18606.0, 18600.0, 18616.0, 18636.0, 18642.0, 18640.0, 18640.0, 18626.0, 18624.0, 18658.0, 18656.0, 18624.0, 18636.0, 18640.0, 18642.0, 18624.0, 18610.0, 18606.0, 18642.0, 18654.0, 18670.0, 18644.0, 18632.0, 18592.0, 18638.0, 18642.0, 18620.0, 18614.0, 18628.0, 18634.0, 18622.0, 18622.0, 18636.0, 18630.0, 18640.0, 18634.0, 18668.0, 18632.0, 18654.0, 18642.0, 18608.0, 18660.0, 18642.0, 18646.0, 18642.0, 18676.0, 18632.0, 18632.0, 18630.0, 18616.0, 18596.0, 18612.0, 18598.0, 18628.0, 18618.0, 18634.0, 18632.0, 18634.0, 18628.0, 18628.0, 18618.0, 18608.0, 18624.0, 18618.0, 18606.0, 18618.0, 18630.0, 18632.0, 18626.0]
    },
    "slices": {}
  }
}