{
  "AcquisitionMatrixPE": 104,
  "AcquisitionNumber": 1,
  "AcquisitionTime": "16:15:46.665000",
  "BandwidthPerPixelPhaseEncode": 17.17,
  "BaseResolution": 104,
  "BodyPartExamined": "BRAIN",
  "CoilString": "HC1-7;NC1_2",
  "ConsistencyInfo": "N4_VE11C_LATEST_20160120",
  "ConversionSoftware": "dcm2niix",
  "ConversionSoftwareVersion": "v1.0.20190902",
  "DerivedVendorReportedEchoSpacing": 0.000560011,
  "DeviceSerialNumber": "167006",
  "DwellTime": 2.1e-06,
  "EchoTime": 0.037,
  "EchoTrainLength": 104,
  "EffectiveEchoSpacing": 0.000560011,
  "FlipAngle": 52,
  "ImageComments": "Unaliased_MB4_PE3_LB",
  "ImageOrientationPatientDICOM": [0.996953, -0.0681882, 0.0378858, 0.0767114, 0.945133, -0.317553],
  "ImageType": [
    "ORIGINAL",
    "PRIMARY",
    "M",
    "MB",
    "ND",
    "MOSAIC"
],
  "ImagingFrequency": 123.259,
  "InPlanePhaseEncodingDirectionDICOM": "COL",
  "InstitutionAddress": "Chemin_Queen-Mary_4565_Montreal_District_CA_H3W_1W5",
  "InstitutionName": "IUGM",
  "InstitutionalDepartmentName": "Department",
  "MRAcquisitionType": "2D",
  "MagneticFieldStrength": 3,
  "Manufacturer": "Siemens",
  "ManufacturersModelName": "Prisma_fit",
  "Modality": "MR",
  "MultibandAccelerationFactor": 4,
  "PartialFourier": 1,
  "PatientPosition": "HFS",
  "PercentPhaseFOV": 100,
  "PhaseEncodingDirection": "j",
  "PhaseEncodingSteps": 104,
  "PhaseResolution": 1,
  "PixelBandwidth": 2290,
  "ProcedureStepDescription": "localizers_retinotopy",
  "ProtocolName": "func_task-wedges",
  "PulseSequenceDetails": "%CustomerSeq%_cmrr_mbep2d_bold",
  "ReceiveCoilActiveElements": "HC1-7;NC1,2",
  "ReceiveCoilName": "HeadNeck_64",
  "ReconMatrixPE": 104,
  "RepetitionTime": 1.49,
  "SAR": 0.0367112,
  "ScanOptions": "FS",
  "ScanningSequence": "EP",
  "SequenceName": "epfid2d1_104",
  "SequenceVariant": "SK_SS",
  "SeriesDescription": "func_task-wedges",
  "SeriesNumber": 10,
  "ShimSetting": [631, -7265, -8808, 610, -6, -198, 2, -24],
  "SliceThickness": 2,
  "SliceTiming": [0, 0.785, 0.1, 0.8825, 0.1975, 0.98, 0.295, 1.08, 0.3925, 1.1775, 0.49, 1.275, 0.59, 1.3725, 0.6875, 0, 0.785, 0.1, 0.8825, 0.1975, 0.98, 0.295, 1.08, 0.3925, 1.1775, 0.49, 1.275, 0.59, 1.3725, 0.6875, 0, 0.785, 0.1, 0.8825, 0.1975, 0.98, 0.295, 1.08, 0.3925, 1.1775, 0.49, 1.275, 0.59, 1.3725, 0.6875, 0, 0.785, 0.1, 0.8825, 0.1975, 0.98, 0.295, 1.08, 0.3925, 1.1775, 0.49, 1.275, 0.59, 1.3725, 0.6875],
  "SoftwareVersions": "syngo_MR_E11",
  "SpacingBetweenSlices": 2,
  "StationName": "MRC35049",
  "TaskName": "wedges",
  "TotalReadoutTime": 0.0576811,
  "TxRefAmp": 238.645,
  "WipMemBlock": "5dfa7602-142b-4178-bec8-2c7375dda106||Sequence: R016 ve11c/master r/e634e98; Dec 19 2017 11:00:25 by eja",
  "dcmmeta_affine": [
    [-1.993905782699585, 0.15342272818088531, 0.02830752730369568, 99.45114135742188],
    [0.13637638092041016, 1.8902653455734253, -0.638982355594635, -72.54688262939453],
    [0.07577157765626907, 0.6351050138473511, 1.8949670791625977, -64.11993408203125],
    [0.0, 0.0, 0.0, 1.0]
],
  "dcmmeta_reorient_transform": [
    [0.0, -1.0, 0.0, 103.0],
    [1.0, 0.0, 0.0, 0.0],
    [0.0, 0.0, 1.0, 0.0],
    [0.0, 0.0, 0.0, 1.0]
],
  "dcmmeta_shape": [104, 104, 60, 202],
  "dcmmeta_slice_dim": 2,
  "dcmmeta_version": 0.6,
  "global": {
    "const": {
      "AcquisitionMatrix": [104, 0, 0, 104],
      "AngioFlag": "N",
      "BitsAllocated": 16,
      "BitsStored": 16,
      "BodyPartExamined": "BRAIN",
      "Columns": 832,
      "EchoNumbers": 1,
      "EchoTime": 37.0,
      "EchoTrainLength": 104,
      "FlipAngle": 52.0,
      "HighBit": 15,
      "ImageOrientationPatient": [0.99695287635127, -0.0681881913602, 0.0378857874929, 0.07671136368046, 0.9451326693868, -0.3175525215457],
      "ImagePositionPatient": [-896.8812504362, -760.56602692477, 204.89326731816],
      "ImageType": [
        "ORIGINAL",
        "PRIMARY",
        "M",
        "MB",
        "ND",
        "MOSAIC"
],
      "ImagedNucleus": "1H",
      "ImagingFrequency": 123.258909,
      "InPlanePhaseEncodingDirection": "COL",
      "MRAcquisitionType": "2D",
      "MagneticFieldStrength": 3.0,
      "Manufacturer": "SIEMENS",
      "ManufacturerModelName": "Prisma_fit",
      "Modality": "MR",
      "NumberOfAverages": 1.0,
      "NumberOfPhaseEncodingSteps": 104,
      "PercentPhaseFieldOfView": 100.0,
      "PercentSampling": 100.0,
      "PerformedProcedureStepStartTime": "160956.053000",
      "PhotometricInterpretation": "MONOCHROME2",
      "PixelBandwidth": 2290.0,
      "PixelRepresentation": 0,
      "PixelSpacing": [2.0, 2.0],
      "ProtocolName": "func_task-wedges",
      "RepetitionTime": 1490.0,
      "Rows": 832,
      "SAR": 0.03671124539557,
      "SamplesPerPixel": 1,
      "ScanOptions": "FS",
      "ScanningSequence": "EP",
      "SequenceName": "epfid2d1_104",
      "SequenceVariant": [
        "SK",
        "SS"
],
      "SeriesDescription": "func_task-wedges",
      "SeriesNumber": 10,
      "SeriesTime": "161704.492000",
      "SliceLocation": -36.16688621667,
      "SliceThickness": 2.0,
      "SmallestImagePixelValue": 0,
      "SoftwareVersions": "syngo MR E11",
      "SpacingBetweenSlices": 2.0000000059722,
      "SpecificCharacterSet": "ISO_IR 100",
      "StudyID": "1",
      "StudyTime": "160955.989000",
      "TransmitCoilName": "Body",
      "VariableFlipAngleFlag": "N",
      "WindowCenterWidthExplanation": "Algo1",
      "dBdt": 0.0},
    "slices": {}
  },
  "time": {
    "samples": {
      "AcquisitionNumber": [1, 2, 3, 4, 5, 6, 7, 8, 9, 10, 11, 12, 13, 14, 15, 16, 17, 18, 19, 20, 21, 22, 23, 24, 25, 26, 27, 28, 29, 30, 31, 32, 33, 34, 35, 36, 37, 38, 39, 40, 41, 42, 43, 44, 45, 46, 47, 48, 49, 50, 51, 52, 53, 54, 55, 56, 57, 58, 59, 60, 61, 62, 63, 64, 65, 66, 67, 68, 69, 70, 71, 72, 73, 74, 75, 76, 77, 78, 79, 80, 81, 82, 83, 84, 85, 86, 87, 88, 89, 90, 91, 92, 93, 94, 95, 96, 97, 98, 99, 100, 101, 102, 103, 104, 105, 106, 107, 108, 109, 110, 111, 112, 113, 114, 115, 116, 117, 118, 119, 120, 121, 122, 123, 124, 125, 126, 127, 128, 129, 130, 131, 132, 133, 134, 135, 136, 137, 138, 139, 140, 141, 142, 143, 144, 145, 146, 147, 148, 149, 150, 151, 152, 153, 154, 155, 156, 157, 158, 159, 160, 161, 162, 163, 164, 165, 166, 167, 168, 169, 170, 171, 172, 173, 174, 175, 176, 177, 178, 179, 180, 181, 182, 183, 184, 185, 186, 187, 188, 189, 190, 191, 192, 193, 194, 195, 196, 197, 198, 199, 200, 201, 202],
      "AcquisitionTime": ["161546.665000", "161548.155000", "161549.645000", "161551.135000", "161552.625000", "161554.115000", "161555.605000", "161557.095000", "161558.585000", "161600.075000", "161601.565000", "161603.055000", "161604.545000", "161606.035000", "161607.525000", "161609.015000", "161610.505000", "161611.995000", "161613.485000", "161614.975000", "161616.465000", "161617.955000", "161619.445000", "161620.935000", "161622.425000", "161623.915000", "161625.405000", "161626.895000", "161628.385000", "161629.875000", "161631.365000", "161632.855000", "161634.345000", "161635.835000", "161637.325000", "161638.815000", "161640.305000", "161641.795000", "161643.285000", "161644.775000", "161646.265000", "161647.755000", "161649.245000", "161650.735000", "161652.225000", "161653.715000", "161655.205000", "161656.695000", "161658.185000", "161659.675000", "161701.165000", "161702.655000", "161704.145000", "161705.635000", "161707.125000", "161708.615000", "161710.105000", "161711.595000", "161713.085000", "161714.575000", "161716.065000", "161717.555000", "161719.045000", "161720.535000", "161722.025000", "161723.515000", "161725.005000", "161726.495000", "161727.985000", "161729.475000", "161730.965000", "161732.455000", "161733.945000", "161735.435000", "161736.925000", "161738.415000", "161739.905000", "161741.395000", "161742.885000", "161744.375000", "161745.865000", "161747.355000", "161748.845000", "161750.335000", "161751.825000", "161753.315000", "161754.805000", "161756.295000", "161757.785000", "161759.275000", "161800.765000", "161802.255000", "161803.745000", "161805.235000", "161806.725000", "161808.215000", "161809.705000", "161811.195000", "161812.685000", "161814.175000", "161815.665000", "161817.155000", "161818.645000", "161820.135000", "161821.625000", "161823.115000", "161824.605000", "161826.095000", "161827.585000", "161829.075000", "161830.565000", "161832.055000", "161833.545000", "161835.035000", "161836.525000", "161838.015000", "161839.505000", "161840.995000", "161842.485000", "161843.975000", "161845.465000", "161846.955000", "161848.445000", "161849.935000", "161851.425000", "161852.915000", "161854.405000", "161855.895000", "161857.385000", "161858.875000", "161900.365000", "161901.855000", "161903.345000", "161904.835000", "161906.325000", "161907.815000", "161909.305000", "161910.795000", "161912.285000", "161913.775000", "161915.265000", "161916.755000", "161918.245000", "161919.735000", "161921.225000", "161922.715000", "161924.205000", "161925.695000", "161927.185000", "161928.675000", "161930.165000", "161931.655000", "161933.145000", "161934.635000", "161936.125000", "161937.615000", "161939.105000", "161940.595000", "161942.085000", "161943.575000", "161945.065000", "161946.555000", "161948.045000", "161949.535000", "161951.025000", "161952.515000", "161954.005000", "161955.495000", "161956.985000", "161958.475000", "161959.965000", "162001.455000", "162002.945000", "162004.435000", "162005.925000", "162007.415000", "162008.905000", "162010.395000", "162011.885000", "162013.375000", "162014.865000", "162016.355000", "162017.845000", "162019.335000", "162020.825000", "162022.315000", "162023.805000", "162025.295000", "162026.785000", "162028.275000", "162029.765000", "162031.255000", "162032.745000", "162034.235000", "162035.725000", "162037.215000", "162038.705000", "162040.195000", "162041.685000", "162043.175000", "162044.665000", "162046.155000"],
      "ContentTime": ["161704.495000", "161704.499000", "161704.502000", "161704.506000", "161704.518000", "161704.521000", "161704.525000", "161704.528000", "161704.531000", "161704.535000", "161704.538000", "161704.542000", "161704.545000", "161704.548000", "161704.552000", "161704.555000", "161704.559000", "161704.562000", "161704.565000", "161704.569000", "161704.572000", "161704.575000", "161724.459000", "161724.463000", "161724.467000", "161724.470000", "161724.474000", "161724.477000", "161724.480000", "161724.483000", "161724.487000", "161724.490000", "161724.493000", "161724.497000", "161724.500000", "161724.503000", "161724.506000", "161724.510000", "161724.513000", "161724.516000", "161724.520000", "161724.523000", "161744.459000", "161744.463000", "161744.466000", "161744.469000", "161744.473000", "161744.476000", "161744.479000", "161744.483000", "161744.486000", "161744.489000", "161744.496000", "161744.500000", "161744.503000", "161744.506000", "161744.510000", "161744.513000", "161744.516000", "161744.519000", "161744.523000", "161744.526000", "161804.458000", "161804.462000", "161804.465000", "161804.468000", "161804.472000", "161804.475000", "161804.478000", "161804.482000", "161804.485000", "161804.488000", "161804.492000", "161804.507000", "161804.510000", "161804.513000", "161804.517000", "161804.520000", "161804.523000", "161804.527000", "161804.530000", "161804.533000", "161824.458000", "161824.462000", "161824.465000", "161824.468000", "161824.472000", "161824.475000", "161824.479000", "161824.482000", "161824.485000", "161824.489000", "161824.492000", "161824.496000", "161824.499000", "161824.502000", "161824.506000", "161824.509000", "161824.512000", "161824.515000", "161824.519000", "161824.522000", "161904.458000", "161904.462000", "161904.465000", "161904.468000", "161904.472000", "161904.475000", "161904.478000", "161904.482000", "161904.485000", "161904.488000", "161904.492000", "161904.495000", "161904.498000", "161904.501000", "161904.505000", "161904.508000", "161904.511000", "161904.515000", "161904.518000", "161904.522000", "161904.525000", "161904.528000", "161904.531000", "161904.535000", "161904.538000", "161904.541000", "161904.552000", "161904.556000", "161904.559000", "161904.562000", "161944.459000", "161944.463000", "161944.466000", "161944.470000", "161944.473000", "161944.476000", "161944.480000", "161944.483000", "161944.486000", "161944.490000", "161944.493000", "161944.496000", "161944.500000", "161944.503000", "161944.506000", "161944.510000", "161944.513000", "161944.516000", "161944.520000", "161944.524000", "161944.527000", "161944.531000", "161944.534000", "161944.538000", "161944.541000", "161944.544000", "162024.458000", "162024.462000", "162024.465000", "162024.468000", "162024.472000", "162024.475000", "162024.478000", "162024.482000", "162024.485000", "162024.488000", "162024.492000", "162024.495000", "162024.498000", "162024.502000", "162024.505000", "162024.508000", "162024.528000", "162024.532000", "162024.535000", "162024.538000", "162024.542000", "162024.545000", "162024.548000", "162024.551000", "162024.555000", "162024.558000", "162024.561000", "162044.458000", "162044.462000", "162044.465000", "162044.468000", "162044.472000", "162044.475000", "162044.478000", "162044.482000", "162044.485000", "162044.488000", "162044.492000", "162044.495000", "162044.498000", "162044.501000", "162048.800000", "162048.804000", "162048.807000"],
      "InstanceCreationTime": ["161704.495000", "161704.499000", "161704.502000", "161704.506000", "161704.518000", "161704.521000", "161704.525000", "161704.528000", "161704.531000", "161704.535000", "161704.538000", "161704.542000", "161704.545000", "161704.548000", "161704.552000", "161704.555000", "161704.559000", "161704.562000", "161704.565000", "161704.569000", "161704.572000", "161704.575000", "161724.459000", "161724.463000", "161724.467000", "161724.470000", "161724.474000", "161724.477000", "161724.480000", "161724.483000", "161724.487000", "161724.490000", "161724.493000", "161724.497000", "161724.500000", "161724.503000", "161724.506000", "161724.510000", "161724.513000", "161724.516000", "161724.520000", "161724.523000", "161744.459000", "161744.463000", "161744.466000", "161744.469000", "161744.473000", "161744.476000", "161744.479000", "161744.483000", "161744.486000", "161744.489000", "161744.496000", "161744.500000", "161744.503000", "161744.506000", "161744.510000", "161744.513000", "161744.516000", "161744.519000", "161744.523000", "161744.526000", "161804.458000", "161804.462000", "161804.465000", "161804.468000", "161804.472000", "161804.475000", "161804.478000", "161804.482000", "161804.485000", "161804.488000", "161804.492000", "161804.507000", "161804.510000", "161804.513000", "161804.517000", "161804.520000", "161804.523000", "161804.527000", "161804.530000", "161804.533000", "161824.458000", "161824.462000", "161824.465000", "161824.468000", "161824.472000", "161824.475000", "161824.479000", "161824.482000", "161824.485000", "161824.489000", "161824.492000", "161824.496000", "161824.499000", "161824.502000", "161824.506000", "161824.509000", "161824.512000", "161824.515000", "161824.519000", "161824.522000", "161904.458000", "161904.462000", "161904.465000", "161904.468000", "161904.472000", "161904.475000", "161904.478000", "161904.482000", "161904.485000", "161904.488000", "161904.492000", "161904.495000", "161904.498000", "161904.501000", "161904.505000", "161904.508000", "161904.511000", "161904.515000", "161904.518000", "161904.522000", "161904.525000", "161904.528000", "161904.531000", "161904.535000", "161904.538000", "161904.541000", "161904.552000", "161904.556000", "161904.559000", "161904.562000", "161944.459000", "161944.463000", "161944.466000", "161944.470000", "161944.473000", "161944.476000", "161944.480000", "161944.483000", "161944.486000", "161944.490000", "161944.493000", "161944.496000", "161944.500000", "161944.503000", "161944.506000", "161944.510000", "161944.513000", "161944.516000", "161944.520000", "161944.524000", "161944.527000", "161944.531000", "161944.534000", "161944.538000", "161944.541000", "161944.544000", "162024.458000", "162024.462000", "162024.465000", "162024.468000", "162024.472000", "162024.475000", "162024.478000", "162024.482000", "162024.485000", "162024.488000", "162024.492000", "162024.495000", "162024.498000", "162024.502000", "162024.505000", "162024.508000", "162024.528000", "162024.532000", "162024.535000", "162024.538000", "162024.542000", "162024.545000", "162024.548000", "162024.551000", "162024.555000", "162024.558000", "162024.561000", "162044.458000", "162044.462000", "162044.465000", "162044.468000", "162044.472000", "162044.475000", "162044.478000", "162044.482000", "162044.485000", "162044.488000", "162044.492000", "162044.495000", "162044.498000", "162044.501000", "162048.800000", "162048.804000", "162048.807000"],
      "InstanceNumber": [1, 2, 3, 4, 5, 6, 7, 8, 9, 10, 11, 12, 13, 14, 15, 16, 17, 18, 19, 20, 21, 22, 23, 24, 25, 26, 27, 28, 29, 30, 31, 32, 33, 34, 35, 36, 37, 38, 39, 40, 41, 42, 43, 44, 45, 46, 47, 48, 49, 50, 51, 52, 53, 54, 55, 56, 57, 58, 59, 60, 61, 62, 63, 64, 65, 66, 67, 68, 69, 70, 71, 72, 73, 74, 75, 76, 77, 78, 79, 80, 81, 82, 83, 84, 85, 86, 87, 88, 89, 90, 91, 92, 93, 94, 95, 96, 97, 98, 99, 100, 101, 102, 103, 104, 105, 106, 107, 108, 109, 110, 111, 112, 113, 114, 115, 116, 117, 118, 119, 120, 121, 122, 123, 124, 125, 126, 127, 128, 129, 130, 131, 132, 133, 134, 135, 136, 137, 138, 139, 140, 141, 142, 143, 144, 145, 146, 147, 148, 149, 150, 151, 152, 153, 154, 155, 156, 157, 158, 159, 160, 161, 162, 163, 164, 165, 166, 167, 168, 169, 170, 171, 172, 173, 174, 175, 176, 177, 178, 179, 180, 181, 182, 183, 184, 185, 186, 187, 188, 189, 190, 191, 192, 193, 194, 195, 196, 197, 198, 199, 200, 201, 202],
      "LargestImagePixelValue": [45928, 44413, 44089, 43381, 43485, 43035, 42649, 43192, 43135, 43293, 43107, 43030, 43102, 43144, 42694, 42863, 42543, 42866, 43296, 43734, 43348, 43347, 43072, 42789, 43089, 43235, 43926, 43333, 43462, 43393, 43221, 42957, 42765, 42882, 43624, 43663, 43229, 43166, 42960, 43421, 43253, 42896, 43493, 43280, 43390, 43232, 43218, 43260, 43375, 43690, 43286, 43856, 43525, 43043, 42554, 43141, 43095, 42979, 43403, 43462, 43681, 43121, 43283, 43307, 43399, 42853, 43371, 42925, 42905, 43248, 42093, 42539, 42574, 42910, 43222, 43092, 43256, 43078, 43036, 43587, 42882, 43134, 43230, 42878, 43237, 43519, 43217, 43625, 43411, 43121, 42593, 41899, 42894, 42998, 43043, 42843, 43140, 43412, 43757, 43579, 43401, 42880, 42561, 42533, 43071, 43536, 43969, 43232, 43201, 42295, 42555, 43156, 42965, 43369, 43348, 43118, 42640, 42886, 42663, 43437, 43266, 42561, 43177, 42648, 42807, 42725, 42854, 43170, 43266, 43147, 43671, 43075, 43019, 42916, 42718, 42951, 43146, 42974, 42700, 43231, 43058, 43185, 43168, 42127, 42446, 42662, 42448, 42903, 43611, 43832, 43514, 43134, 42386, 42651, 42866, 42611, 42674, 42778, 42950, 43313, 43134, 43070, 42938, 42799, 42431, 42278, 42993, 43082, 43124, 42646, 42258, 42515, 41852, 41976, 42175, 42882, 42673, 42671, 42845, 43101, 42729, 42547, 42419, 42605, 42030, 42387, 42421, 42481, 42565, 43047, 42957, 42224, 42667, 43133, 42788, 42577, 41849, 43288, 44177, 43192, 42709, 42862],
      "WindowCenter": [10416.0, 10352.0, 10313.0, 10285.0, 10269.0, 10266.0, 10265.0, 10288.0, 10325.0, 10330.0, 10322.0, 10320.0, 10342.0, 10346.0, 10341.0, 10324.0, 10316.0, 10321.0, 10323.0, 10318.0, 10303.0, 10296.0, 10302.0, 10312.0, 10328.0, 10338.0, 10343.0, 10331.0, 10327.0, 10320.0, 10328.0, 10331.0, 10339.0, 10341.0, 10358.0, 10355.0, 10347.0, 10339.0, 10346.0, 10374.0, 10386.0, 10373.0, 10356.0, 10339.0, 10336.0, 10337.0, 10360.0, 10370.0, 10366.0, 10366.0, 10363.0, 10353.0, 10337.0, 10323.0, 10316.0, 10314.0, 10299.0, 10295.0, 10302.0, 10316.0, 10337.0, 10329.0, 10327.0, 10327.0, 10342.0, 10353.0, 10347.0, 10339.0, 10344.0, 10367.0, 10367.0, 10373.0, 10372.0, 10357.0, 10352.0, 10338.0, 10336.0, 10329.0, 10323.0, 10334.0, 10337.0, 10345.0, 10345.0, 10341.0, 10337.0, 10336.0, 10344.0, 10344.0, 10343.0, 10323.0, 10307.0, 10299.0, 10314.0, 10321.0, 10314.0, 10306.0, 10298.0, 10308.0, 10322.0, 10335.0, 10335.0, 10314.0, 10301.0, 10306.0, 10332.0, 10364.0, 10381.0, 10361.0, 10339.0, 10312.0, 10305.0, 10310.0, 10303.0, 10301.0, 10295.0, 10297.0, 10291.0, 10292.0, 10305.0, 10333.0, 10343.0, 10325.0, 10336.0, 10341.0, 10342.0, 10343.0, 10342.0, 10340.0, 10353.0, 10356.0, 10363.0, 10351.0, 10333.0, 10319.0, 10325.0, 10337.0, 10346.0, 10347.0, 10333.0, 10332.0, 10331.0, 10323.0, 10321.0, 10320.0, 10334.0, 10342.0, 10343.0, 10357.0, 10376.0, 10354.0, 10329.0, 10307.0, 10293.0, 10297.0, 10297.0, 10275.0, 10257.0, 10263.0, 10270.0, 10278.0, 10288.0, 10300.0, 10304.0, 10321.0, 10338.0, 10337.0, 10356.0, 10359.0, 10349.0, 10329.0, 10321.0, 10335.0, 10329.0, 10323.0, 10327.0, 10326.0, 10328.0, 10325.0, 10316.0, 10321.0, 10322.0, 10326.0, 10333.0, 10342.0, 10333.0, 10329.0, 10313.0, 10310.0, 10317.0, 10344.0, 10351.0, 10337.0, 10321.0, 10318.0, 10310.0, 10295.0, 10287.0, 10332.0, 10356.0, 10337.0, 10318.0, 10318.0],
      "WindowWidth": [22579.0, 22391.0, 22277.0, 22198.0, 22157.0, 22146.0, 22143.0, 22193.0, 22277.0, 22289.0, 22269.0, 22265.0, 22312.0, 22324.0, 22311.0, 22273.0, 22254.0, 22264.0, 22272.0, 22258.0, 22224.0, 22208.0, 22219.0, 22242.0, 22279.0, 22304.0, 22313.0, 22289.0, 22278.0, 22263.0, 22281.0, 22289.0, 22310.0, 22313.0, 22348.0, 22344.0, 22326.0, 22309.0, 22325.0, 22387.0, 22418.0, 22389.0, 22349.0, 22309.0, 22299.0, 22302.0, 22355.0, 22378.0, 22370.0, 22369.0, 22365.0, 22338.0, 22301.0, 22271.0, 22254.0, 22249.0, 22216.0, 22204.0, 22221.0, 22253.0, 22300.0, 22288.0, 22283.0, 22284.0, 22316.0, 22344.0, 22329.0, 22312.0, 22319.0, 22370.0, 22377.0, 22388.0, 22388.0, 22353.0, 22337.0, 22308.0, 22300.0, 22286.0, 22271.0, 22293.0, 22306.0, 22322.0, 22320.0, 22313.0, 22300.0, 22301.0, 22318.0, 22320.0, 22317.0, 22271.0, 22238.0, 22219.0, 22249.0, 22267.0, 22250.0, 22231.0, 22214.0, 22235.0, 22264.0, 22297.0, 22299.0, 22253.0, 22224.0, 22233.0, 22291.0, 22365.0, 22401.0, 22359.0, 22307.0, 22250.0, 22230.0, 22236.0, 22223.0, 22215.0, 22206.0, 22213.0, 22202.0, 22205.0, 22231.0, 22291.0, 22314.0, 22277.0, 22299.0, 22314.0, 22315.0, 22319.0, 22315.0, 22307.0, 22337.0, 22348.0, 22360.0, 22336.0, 22295.0, 22265.0, 22277.0, 22301.0, 22322.0, 22325.0, 22293.0, 22291.0, 22291.0, 22271.0, 22267.0, 22269.0, 22298.0, 22315.0, 22321.0, 22355.0, 22396.0, 22345.0, 22284.0, 22235.0, 22205.0, 22210.0, 22210.0, 22159.0, 22120.0, 22131.0, 22151.0, 22168.0, 22194.0, 22218.0, 22229.0, 22269.0, 22307.0, 22308.0, 22348.0, 22356.0, 22331.0, 22289.0, 22270.0, 22300.0, 22288.0, 22276.0, 22284.0, 22279.0, 22283.0, 22275.0, 22257.0, 22266.0, 22269.0, 22282.0, 22297.0, 22317.0, 22300.0, 22286.0, 22252.0, 22243.0, 22259.0, 22317.0, 22338.0, 22310.0, 22271.0, 22265.0, 22244.0, 22210.0, 22194.0, 22292.0, 22345.0, 22308.0, 22262.0, 22259.0]
    },
    "slices": {}
  }
}