{
  "AcquisitionMatrixPE": 104,
  "AcquisitionNumber": 1,
  "AcquisitionTime": "16:22:25.987500",
  "BandwidthPerPixelPhaseEncode": 17.17,
  "BaseResolution": 104,
  "BodyPartExamined": "BRAIN",
  "CoilString": "HC1-7;NC1_2",
  "ConsistencyInfo": "N4_VE11C_LATEST_20160120",
  "ConversionSoftware": "dcm2niix",
  "ConversionSoftwareVersion": "v1.0.20190902",
  "DerivedVendorReportedEchoSpacing": 0.000560011,
  "DeviceSerialNumber": "167006",
  "DwellTime": 2.1e-06,
  "EchoTime": 0.037,
  "EchoTrainLength": 104,
  "EffectiveEchoSpacing": 0.000560011,
  "FlipAngle": 52,
  "ImageComments": "Unaliased_MB4_PE3_LB",
  "ImageOrientationPatientDICOM": [0.996953, -0.0681882, 0.0378858, 0.0767114, 0.945133, -0.317553],
  "ImageType": [
    "ORIGINAL",
    "PRIMARY",
    "P",
    "MB",
    "ND",
    "MOSAIC"
],
  "ImagingFrequency": 123.259,
  "InPlanePhaseEncodingDirectionDICOM": "COL",
  "InstitutionAddress": "Chemin_Queen-Mary_4565_Montreal_District_CA_H3W_1W5",
  "InstitutionName": "IUGM",
  "InstitutionalDepartmentName": "Department",
  "MRAcquisitionType": "2D",
  "MagneticFieldStrength": 3,
  "Manufacturer": "Siemens",
  "ManufacturersModelName": "Prisma_fit",
  "Modality": "MR",
  "MultibandAccelerationFactor": 4,
  "PartialFourier": 1,
  "PatientPosition": "HFS",
  "PercentPhaseFOV": 100,
  "PhaseEncodingDirection": "j",
  "PhaseEncodingSteps": 104,
  "PhaseResolution": 1,
  "PixelBandwidth": 2290,
  "ProcedureStepDescription": "localizers_retinotopy",
  "ProtocolName": "func_task-rings",
  "PulseSequenceDetails": "%CustomerSeq%_cmrr_mbep2d_bold",
  "ReceiveCoilActiveElements": "HC1-7;NC1,2",
  "ReceiveCoilName": "HeadNeck_64",
  "ReconMatrixPE": 104,
  "RepetitionTime": 1.49,
  "SAR": 0.0367112,
  "ScanOptions": "FS",
  "ScanningSequence": "EP",
  "SequenceName": "epfid2d1_104",
  "SequenceVariant": "SK_SS",
  "SeriesDescription": "func_task-rings",
  "SeriesNumber": 14,
  "ShimSetting": [631, -7265, -8808, 610, -6, -198, 2, -24],
  "SliceThickness": 2,
  "SliceTiming": [0, 0.7825, 0.0975, 0.88, 0.195, 0.98, 0.2925, 1.0775, 0.39, 1.175, 0.49, 1.2725, 0.5875, 1.37, 0.685, 0, 0.7825, 0.0975, 0.88, 0.195, 0.98, 0.2925, 1.0775, 0.39, 1.175, 0.49, 1.2725, 0.5875, 1.37, 0.685, 0, 0.7825, 0.0975, 0.88, 0.195, 0.98, 0.2925, 1.0775, 0.39, 1.175, 0.49, 1.2725, 0.5875, 1.37, 0.685, 0, 0.7825, 0.0975, 0.88, 0.195, 0.98, 0.2925, 1.0775, 0.39, 1.175, 0.49, 1.2725, 0.5875, 1.37, 0.685],
  "SoftwareVersions": "syngo_MR_E11",
  "SpacingBetweenSlices": 2,
  "StationName": "MRC35049",
  "TaskName": "rings",
  "TotalReadoutTime": 0.0576811,
  "TxRefAmp": 238.645,
  "WipMemBlock": "26c735b5-38de-4cd1-b95c-b5f9483a0b00||Sequence: R016 ve11c/master r/e634e98; Dec 19 2017 11:00:25 by eja",
  "dcmmeta_affine": [
    [-1.993905782699585, 0.15342272818088531, 0.02830752730369568, 99.45114135742188],
    [0.13637638092041016, 1.8902653455734253, -0.638982355594635, -72.54688262939453],
    [0.07577157765626907, 0.6351050138473511, 1.8949670791625977, -64.11993408203125],
    [0.0, 0.0, 0.0, 1.0]
],
  "dcmmeta_reorient_transform": [
    [0.0, -1.0, 0.0, 103.0],
    [1.0, 0.0, 0.0, 0.0],
    [0.0, 0.0, 1.0, 0.0],
    [0.0, 0.0, 0.0, 1.0]
],
  "dcmmeta_shape": [104, 104, 60, 202],
  "dcmmeta_slice_dim": 2,
  "dcmmeta_version": 0.6,
  "global": {
    "const": {
      "AcquisitionMatrix": [104, 0, 0, 104],
      "AngioFlag": "N",
      "BitsAllocated": 16,
      "BitsStored": 16,
      "BodyPartExamined": "BRAIN",
      "Columns": 832,
      "EchoNumbers": 1,
      "EchoTime": 37.0,
      "EchoTrainLength": 104,
      "FlipAngle": 52.0,
      "HighBit": 15,
      "ImageOrientationPatient": [0.99695287635127, -0.0681881913602, 0.0378857874929, 0.07671136368046, 0.9451326693868, -0.3175525215457],
      "ImagePositionPatient": [-896.8812504362, -760.56602692477, 204.89326731816],
      "ImageType": [
        "ORIGINAL",
        "PRIMARY",
        "P",
        "MB",
        "ND",
        "MOSAIC"
],
      "ImagedNucleus": "1H",
      "ImagingFrequency": 123.258912,
      "InPlanePhaseEncodingDirection": "COL",
      "LargestImagePixelValue": 4095,
      "MRAcquisitionType": "2D",
      "MagneticFieldStrength": 3.0,
      "Manufacturer": "SIEMENS",
      "ManufacturerModelName": "Prisma_fit",
      "Modality": "MR",
      "NumberOfAverages": 1.0,
      "NumberOfPhaseEncodingSteps": 104,
      "PercentPhaseFieldOfView": 100.0,
      "PercentSampling": 100.0,
      "PerformedProcedureStepStartTime": "160956.053000",
      "PhotometricInterpretation": "MONOCHROME2",
      "PixelBandwidth": 2290.0,
      "PixelRepresentation": 0,
      "PixelSpacing": [2.0, 2.0],
      "ProtocolName": "func_task-rings",
      "RepetitionTime": 1490.0,
      "RescaleIntercept": -4096.0,
      "RescaleSlope": 2.0,
      "RescaleType": "US",
      "Rows": 832,
      "SAR": 0.03671124539557,
      "SamplesPerPixel": 1,
      "ScanOptions": "FS",
      "ScanningSequence": "EP",
      "SequenceName": "epfid2d1_104",
      "SequenceVariant": [
        "SK",
        "SS"
],
      "SeriesDescription": "func_task-rings",
      "SeriesNumber": 14,
      "SeriesTime": "162347.077000",
      "SliceLocation": -36.16688621667,
      "SliceThickness": 2.0,
      "SmallestImagePixelValue": 0,
      "SoftwareVersions": "syngo MR E11",
      "SpacingBetweenSlices": 2.0000000059722,
      "SpecificCharacterSet": "ISO_IR 100",
      "StudyID": "1",
      "StudyTime": "160955.989000",
      "TransmitCoilName": "Body",
      "VariableFlipAngleFlag": "N",
      "WindowCenterWidthExplanation": "Algo1",
      "dBdt": 0.0},
    "slices": {}
  },
  "time": {
    "samples": {
      "AcquisitionNumber": [1, 2, 3, 4, 5, 6, 7, 8, 9, 10, 11, 12, 13, 14, 15, 16, 17, 18, 19, 20, 21, 22, 23, 24, 25, 26, 27, 28, 29, 30, 31, 32, 33, 34, 35, 36, 37, 38, 39, 40, 41, 42, 43, 44, 45, 46, 47, 48, 49, 50, 51, 52, 53, 54, 55, 56, 57, 58, 59, 60, 61, 62, 63, 64, 65, 66, 67, 68, 69, 70, 71, 72, 73, 74, 75, 76, 77, 78, 79, 80, 81, 82, 83, 84, 85, 86, 87, 88, 89, 90, 91, 92, 93, 94, 95, 96, 97, 98, 99, 100, 101, 102, 103, 104, 105, 106, 107, 108, 109, 110, 111, 112, 113, 114, 115, 116, 117, 118, 119, 120, 121, 122, 123, 124, 125, 126, 127, 128, 129, 130, 131, 132, 133, 134, 135, 136, 137, 138, 139, 140, 141, 142, 143, 144, 145, 146, 147, 148, 149, 150, 151, 152, 153, 154, 155, 156, 157, 158, 159, 160, 161, 162, 163, 164, 165, 166, 167, 168, 169, 170, 171, 172, 173, 174, 175, 176, 177, 178, 179, 180, 181, 182, 183, 184, 185, 186, 187, 188, 189, 190, 191, 192, 193, 194, 195, 196, 197, 198, 199, 200, 201, 202],
      "AcquisitionTime": ["162225.987500", "162227.477500", "162228.967500", "162230.457500", "162231.947500", "162233.437500", "162234.927500", "162236.417500", "162237.907500", "162239.397500", "162240.887500", "162242.377500", "162243.867500", "162245.357500", "162246.847500", "162248.337500", "162249.827500", "162251.317500", "162252.807500", "162254.297500", "162255.787500", "162257.277500", "162258.767500", "162300.257500", "162301.747500", "162303.237500", "162304.727500", "162306.217500", "162307.707500", "162309.197500", "162310.687500", "162312.177500", "162313.667500", "162315.157500", "162316.647500", "162318.137500", "162319.627500", "162321.117500", "162322.607500", "162324.097500", "162325.587500", "162327.077500", "162328.567500", "162330.057500", "162331.547500", "162333.037500", "162334.527500", "162336.017500", "162337.507500", "162338.997500", "162340.487500", "162341.977500", "162343.467500", "162344.957500", "162346.447500", "162347.937500", "162349.427500", "162350.917500", "162352.407500", "162353.897500", "162355.387500", "162356.877500", "162358.367500", "162359.857500", "162401.347500", "162402.837500", "162404.327500", "162405.817500", "162407.307500", "162408.797500", "162410.287500", "162411.777500", "162413.267500", "162414.757500", "162416.247500", "162417.737500", "162419.227500", "162420.717500", "162422.207500", "162423.697500", "162425.187500", "162426.677500", "162428.167500", "162429.657500", "162431.147500", "162432.637500", "162434.127500", "162435.617500", "162437.107500", "162438.597500", "162440.087500", "162441.577500", "162443.067500", "162444.557500", "162446.047500", "162447.537500", "162449.027500", "162450.517500", "162452.007500", "162453.497500", "162454.987500", "162456.477500", "162457.967500", "162459.457500", "162500.947500", "162502.437500", "162503.927500", "162505.417500", "162506.907500", "162508.397500", "162509.887500", "162511.377500", "162512.867500", "162514.357500", "162515.847500", "162517.337500", "162518.827500", "162520.317500", "162521.807500", "162523.297500", "162524.787500", "162526.277500", "162527.767500", "162529.257500", "162530.747500", "162532.237500", "162533.727500", "162535.217500", "162536.707500", "162538.197500", "162539.687500", "162541.177500", "162542.667500", "162544.157500", "162545.647500", "162547.137500", "162548.627500", "162550.117500", "162551.607500", "162553.097500", "162554.587500", "162556.077500", "162557.567500", "162559.057500", "162600.547500", "162602.037500", "162603.527500", "162605.017500", "162606.507500", "162607.997500", "162609.487500", "162610.977500", "162612.467500", "162613.957500", "162615.447500", "162616.937500", "162618.427500", "162619.917500", "162621.407500", "162622.897500", "162624.387500", "162625.877500", "162627.367500", "162628.857500", "162630.347500", "162631.837500", "162633.327500", "162634.817500", "162636.307500", "162637.797500", "162639.287500", "162640.777500", "162642.267500", "162643.757500", "162645.247500", "162646.737500", "162648.227500", "162649.717500", "162651.207500", "162652.697500", "162654.187500", "162655.677500", "162657.167500", "162658.657500", "162700.147500", "162701.637500", "162703.127500", "162704.617500", "162706.107500", "162707.597500", "162709.087500", "162710.577500", "162712.067500", "162713.557500", "162715.047500", "162716.537500", "162718.027500", "162719.517500", "162721.007500", "162722.497500", "162723.987500", "162725.477500"],
      "ContentTime": ["162347.079000", "162347.082000", "162347.085000", "162347.087000", "162347.090000", "162347.092000", "162347.095000", "162347.098000", "162347.100000", "162347.103000", "162347.105000", "162347.108000", "162347.110000", "162347.117000", "162347.120000", "162347.122000", "162347.125000", "162347.127000", "162347.130000", "162347.132000", "162347.135000", "162347.137000", "162347.140000", "162347.142000", "162347.145000", "162347.147000", "162347.150000", "162347.152000", "162407.013000", "162407.016000", "162407.018000", "162407.021000", "162407.023000", "162407.026000", "162407.028000", "162407.031000", "162407.033000", "162407.036000", "162407.043000", "162407.046000", "162407.048000", "162407.051000", "162407.053000", "162407.056000", "162407.058000", "162407.061000", "162407.063000", "162407.065000", "162426.982000", "162426.985000", "162426.987000", "162426.990000", "162426.992000", "162426.995000", "162426.997000", "162427.001000", "162427.003000", "162427.006000", "162427.008000", "162427.011000", "162427.013000", "162427.016000", "162427.018000", "162427.021000", "162427.023000", "162427.026000", "162427.028000", "162427.031000", "162446.992000", "162446.995000", "162446.998000", "162447.001000", "162447.004000", "162447.012000", "162447.015000", "162447.017000", "162447.020000", "162447.022000", "162447.025000", "162447.027000", "162447.030000", "162447.032000", "162447.035000", "162447.037000", "162447.040000", "162447.042000", "162447.045000", "162447.047000", "162527.048000", "162527.051000", "162527.054000", "162527.056000", "162527.058000", "162527.061000", "162527.064000", "162527.066000", "162527.069000", "162527.071000", "162527.074000", "162527.076000", "162527.079000", "162527.081000", "162527.083000", "162527.086000", "162527.088000", "162527.091000", "162527.093000", "162527.096000", "162527.098000", "162527.101000", "162527.103000", "162527.106000", "162527.108000", "162527.111000", "162527.113000", "162527.116000", "162527.118000", "162527.121000", "162527.123000", "162527.126000", "162527.128000", "162607.032000", "162607.035000", "162607.038000", "162607.041000", "162607.044000", "162607.047000", "162607.049000", "162607.052000", "162607.055000", "162607.057000", "162607.060000", "162607.062000", "162607.065000", "162607.067000", "162607.070000", "162607.072000", "162607.075000", "162607.078000", "162607.080000", "162607.083000", "162607.086000", "162607.088000", "162607.091000", "162607.093000", "162607.096000", "162607.098000", "162647.039000", "162647.042000", "162647.044000", "162647.047000", "162647.050000", "162647.052000", "162647.055000", "162647.057000", "162647.060000", "162647.062000", "162647.065000", "162647.067000", "162647.070000", "162647.072000", "162647.075000", "162647.078000", "162647.080000", "162647.083000", "162647.085000", "162647.088000", "162647.090000", "162647.093000", "162647.095000", "162647.098000", "162647.100000", "162647.103000", "162647.105000", "162727.047000", "162727.050000", "162727.053000", "162727.055000", "162727.076000", "162727.079000", "162727.081000", "162727.084000", "162727.087000", "162727.089000", "162727.092000", "162727.094000", "162727.097000", "162727.100000", "162727.102000", "162727.105000", "162727.108000", "162727.110000", "162727.113000", "162727.115000", "162727.118000", "162727.121000", "162727.123000", "162727.126000", "162727.128000", "162727.131000", "162727.133000", "162727.583000"],
      "InstanceCreationTime": ["162347.079000", "162347.082000", "162347.085000", "162347.087000", "162347.090000", "162347.092000", "162347.095000", "162347.098000", "162347.100000", "162347.103000", "162347.105000", "162347.108000", "162347.110000", "162347.117000", "162347.120000", "162347.122000", "162347.125000", "162347.127000", "162347.130000", "162347.132000", "162347.135000", "162347.137000", "162347.140000", "162347.142000", "162347.145000", "162347.147000", "162347.150000", "162347.152000", "162407.013000", "162407.016000", "162407.018000", "162407.021000", "162407.023000", "162407.026000", "162407.028000", "162407.031000", "162407.033000", "162407.036000", "162407.043000", "162407.046000", "162407.048000", "162407.051000", "162407.053000", "162407.056000", "162407.058000", "162407.061000", "162407.063000", "162407.065000", "162426.982000", "162426.985000", "162426.987000", "162426.990000", "162426.992000", "162426.995000", "162426.997000", "162427.001000", "162427.003000", "162427.006000", "162427.008000", "162427.011000", "162427.013000", "162427.016000", "162427.018000", "162427.021000", "162427.023000", "162427.026000", "162427.028000", "162427.031000", "162446.992000", "162446.995000", "162446.998000", "162447.001000", "162447.004000", "162447.012000", "162447.015000", "162447.017000", "162447.020000", "162447.022000", "162447.025000", "162447.027000", "162447.030000", "162447.032000", "162447.035000", "162447.037000", "162447.040000", "162447.042000", "162447.045000", "162447.047000", "162527.048000", "162527.051000", "162527.054000", "162527.056000", "162527.058000", "162527.061000", "162527.064000", "162527.066000", "162527.069000", "162527.071000", "162527.074000", "162527.076000", "162527.079000", "162527.081000", "162527.083000", "162527.086000", "162527.088000", "162527.091000", "162527.093000", "162527.096000", "162527.098000", "162527.101000", "162527.103000", "162527.106000", "162527.108000", "162527.111000", "162527.113000", "162527.116000", "162527.118000", "162527.121000", "162527.123000", "162527.126000", "162527.128000", "162607.032000", "162607.035000", "162607.038000", "162607.041000", "162607.044000", "162607.047000", "162607.049000", "162607.052000", "162607.055000", "162607.057000", "162607.060000", "162607.062000", "162607.065000", "162607.067000", "162607.070000", "162607.072000", "162607.075000", "162607.078000", "162607.080000", "162607.083000", "162607.086000", "162607.088000", "162607.091000", "162607.093000", "162607.096000", "162607.098000", "162647.039000", "162647.042000", "162647.044000", "162647.047000", "162647.050000", "162647.052000", "162647.055000", "162647.057000", "162647.060000", "162647.062000", "162647.065000", "162647.067000", "162647.070000", "162647.072000", "162647.075000", "162647.078000", "162647.080000", "162647.083000", "162647.085000", "162647.088000", "162647.090000", "162647.093000", "162647.095000", "162647.098000", "162647.100000", "162647.103000", "162647.105000", "162727.047000", "162727.050000", "162727.053000", "162727.055000", "162727.076000", "162727.079000", "162727.081000", "162727.084000", "162727.087000", "162727.089000", "162727.092000", "162727.094000", "162727.097000", "162727.100000", "162727.102000", "162727.105000", "162727.108000", "162727.110000", "162727.113000", "162727.115000", "162727.118000", "162727.121000", "162727.123000", "162727.126000", "162727.128000", "162727.131000", "162727.133000", "162727.583000"],
      "InstanceNumber": [1, 2, 3, 4, 5, 6, 7, 8, 9, 10, 11, 12, 13, 14, 15, 16, 17, 18, 19, 20, 21, 22, 23, 24, 25, 26, 27, 28, 29, 30, 31, 32, 33, 34, 35, 36, 37, 38, 39, 40, 41, 42, 43, 44, 45, 46, 47, 48, 49, 50, 51, 52, 53, 54, 55, 56, 57, 58, 59, 60, 61, 62, 63, 64, 65, 66, 67, 68, 69, 70, 71, 72, 73, 74, 75, 76, 77, 78, 79, 80, 81, 82, 83, 84, 85, 86, 87, 88, 89, 90, 91, 92, 93, 94, 95, 96, 97, 98, 99, 100, 101, 102, 103, 104, 105, 106, 107, 108, 109, 110, 111, 112, 113, 114, 115, 116, 117, 118, 119, 120, 121, 122, 123, 124, 125, 126, 127, 128, 129, 130, 131, 132, 133, 134, 135, 136, 137, 138, 139, 140, 141, 142, 143, 144, 145, 146, 147, 148, 149, 150, 151, 152, 153, 154, 155, 156, 157, 158, 159, 160, 161, 162, 163, 164, 165, 166, 167, 168, 169, 170, 171, 172, 173, 174, 175, 176, 177, 178, 179, 180, 181, 182, 183, 184, 185, 186, 187, 188, 189, 190, 191, 192, 193, 194, 195, 196, 197, 198, 199, 200, 201, 202],
      "WindowCenter": [4820.0, 4822.0, 4820.0, 4822.0, 4796.0, 4828.0, 4820.0, 4832.0, 4896.0, 4892.0, 4832.0, 4818.0, 4798.0, 4800.0, 4818.0, 4820.0, 4824.0, 4796.0, 4824.0, 4824.0, 4826.0, 4832.0, 4824.0, 4826.0, 4820.0, 4798.0, 4824.0, 4826.0, 4824.0, 4798.0, 4822.0, 4820.0, 4820.0, 4830.0, 4820.0, 4822.0, 4820.0, 4826.0, 4818.0, 4820.0, 4826.0, 4798.0, 4826.0, 4822.0, 4818.0, 4824.0, 4822.0, 4820.0, 4822.0, 4820.0, 4822.0, 4820.0, 4820.0, 4824.0, 4822.0, 4822.0, 4826.0, 4826.0, 4798.0, 4824.0, 4826.0, 4826.0, 4820.0, 4820.0, 4822.0, 4828.0, 4824.0, 4858.0, 4906.0, 4906.0, 4866.0, 4822.0, 4802.0, 4800.0, 4798.0, 4824.0, 4824.0, 4830.0, 4860.0, 4858.0, 4826.0, 4820.0, 4822.0, 4824.0, 4824.0, 4824.0, 4800.0, 4798.0, 4826.0, 4824.0, 4822.0, 4822.0, 4802.0, 4824.0, 4826.0, 4832.0, 4858.0, 4862.0, 4856.0, 4826.0, 4818.0, 4802.0, 4802.0, 4822.0, 4830.0, 4868.0, 4894.0, 4862.0, 4828.0, 4824.0, 4824.0, 4822.0, 4822.0, 4822.0, 4852.0, 4834.0, 4832.0, 4826.0, 4824.0, 4822.0, 4824.0, 4796.0, 4820.0, 4824.0, 4822.0, 4820.0, 4824.0, 4828.0, 4822.0, 4828.0, 4822.0, 4822.0, 4822.0, 4824.0, 4798.0, 4822.0, 4822.0, 4822.0, 4822.0, 4828.0, 4830.0, 4826.0, 4822.0, 4796.0, 4822.0, 4822.0, 4820.0, 4820.0, 4826.0, 4834.0, 4798.0, 4864.0, 4896.0, 4864.0, 4856.0, 4820.0, 4820.0, 4820.0, 4822.0, 4802.0, 4820.0, 4822.0, 4860.0, 4892.0, 4866.0, 4856.0, 4822.0, 4826.0, 4822.0, 4828.0, 4822.0, 4820.0, 4826.0, 4820.0, 4864.0, 4858.0, 4796.0, 4820.0, 4818.0, 4802.0, 4802.0, 4800.0, 4820.0, 4822.0, 4834.0, 4832.0, 4828.0, 4826.0, 4822.0, 4798.0, 4800.0, 4798.0, 4802.0, 4806.0, 4800.0, 4822.0, 4902.0, 4900.0, 4858.0, 4824.0, 4802.0, 4820.0],
      "WindowWidth": [18638.0, 18650.0, 18656.0, 18644.0, 18614.0, 18670.0, 18638.0, 18628.0, 18702.0, 18702.0, 18628.0, 18642.0, 18626.0, 18618.0, 18644.0, 18638.0, 18632.0, 18606.0, 18656.0, 18638.0, 18630.0, 18630.0, 18630.0, 18628.0, 18636.0, 18606.0, 18652.0, 18670.0, 18650.0, 18612.0, 18626.0, 18634.0, 18636.0, 18628.0, 18632.0, 18632.0, 18634.0, 18650.0, 18638.0, 18638.0, 18654.0, 18604.0, 18630.0, 18636.0, 18630.0, 18638.0, 18630.0, 18640.0, 18642.0, 18638.0, 18634.0, 18650.0, 18636.0, 18636.0, 18640.0, 18644.0, 18636.0, 18634.0, 18604.0, 18632.0, 18636.0, 18640.0, 18638.0, 18648.0, 18660.0, 18678.0, 18658.0, 18664.0, 18708.0, 18702.0, 18672.0, 18638.0, 18634.0, 18638.0, 18624.0, 18648.0, 18640.0, 18636.0, 18670.0, 18668.0, 18638.0, 18652.0, 18644.0, 18638.0, 18640.0, 18640.0, 18620.0, 18600.0, 18636.0, 18638.0, 18646.0, 18654.0, 18632.0, 18664.0, 18644.0, 18640.0, 18668.0, 18674.0, 18668.0, 18640.0, 18640.0, 18642.0, 18640.0, 18656.0, 18634.0, 18672.0, 18704.0, 18670.0, 18636.0, 18658.0, 18670.0, 18656.0, 18644.0, 18634.0, 18666.0, 18638.0, 18638.0, 18638.0, 18642.0, 18644.0, 18652.0, 18616.0, 18640.0, 18640.0, 18642.0, 18648.0, 18634.0, 18634.0, 18632.0, 18634.0, 18642.0, 18646.0, 18640.0, 18644.0, 18620.0, 18646.0, 18638.0, 18648.0, 18640.0, 18636.0, 18640.0, 18636.0, 18644.0, 18616.0, 18646.0, 18638.0, 18640.0, 18648.0, 18672.0, 18678.0, 18612.0, 18670.0, 18704.0, 18670.0, 18668.0, 18642.0, 18654.0, 18656.0, 18666.0, 18642.0, 18656.0, 18636.0, 18674.0, 18706.0, 18674.0, 18672.0, 18632.0, 18650.0, 18654.0, 18676.0, 18662.0, 18652.0, 18658.0, 18630.0, 18666.0, 18668.0, 18604.0, 18630.0, 18632.0, 18616.0, 18628.0, 18628.0, 18642.0, 18636.0, 18642.0, 18640.0, 18638.0, 18638.0, 18638.0, 18620.0, 18618.0, 18622.0, 18628.0, 18640.0, 18634.0, 18630.0, 18712.0, 18712.0, 18676.0, 18638.0, 18628.0, 18660.0]
    },
    "slices": {}
  }
}