{
  "AcquisitionMatrixPE": 104,
  "AcquisitionNumber": 1,
  "AcquisitionTime": "16:22:25.987500",
  "BandwidthPerPixelPhaseEncode": 17.17,
  "BaseResolution": 104,
  "BodyPartExamined": "BRAIN",
  "CoilString": "HC1-7;NC1_2",
  "ConsistencyInfo": "N4_VE11C_LATEST_20160120",
  "ConversionSoftware": "dcm2niix",
  "ConversionSoftwareVersion": "v1.0.20190902",
  "DerivedVendorReportedEchoSpacing": 0.000560011,
  "DeviceSerialNumber": "167006",
  "DwellTime": 2.1e-06,
  "EchoTime": 0.037,
  "EchoTrainLength": 104,
  "EffectiveEchoSpacing": 0.000560011,
  "FlipAngle": 52,
  "ImageComments": "Unaliased_MB4_PE3_LB",
  "ImageOrientationPatientDICOM": [0.996953, -0.0681882, 0.0378858, 0.0767114, 0.945133, -0.317553],
  "ImageType": [
    "ORIGINAL",
    "PRIMARY",
    "M",
    "MB",
    "ND",
    "MOSAIC"
],
  "ImagingFrequency": 123.259,
  "InPlanePhaseEncodingDirectionDICOM": "COL",
  "InstitutionAddress": "Chemin_Queen-Mary_4565_Montreal_District_CA_H3W_1W5",
  "InstitutionName": "IUGM",
  "InstitutionalDepartmentName": "Department",
  "MRAcquisitionType": "2D",
  "MagneticFieldStrength": 3,
  "Manufacturer": "Siemens",
  "ManufacturersModelName": "Prisma_fit",
  "Modality": "MR",
  "MultibandAccelerationFactor": 4,
  "PartialFourier": 1,
  "PatientPosition": "HFS",
  "PercentPhaseFOV": 100,
  "PhaseEncodingDirection": "j",
  "PhaseEncodingSteps": 104,
  "PhaseResolution": 1,
  "PixelBandwidth": 2290,
  "ProcedureStepDescription": "localizers_retinotopy",
  "ProtocolName": "func_task-rings",
  "PulseSequenceDetails": "%CustomerSeq%_cmrr_mbep2d_bold",
  "ReceiveCoilActiveElements": "HC1-7;NC1,2",
  "ReceiveCoilName": "HeadNeck_64",
  "ReconMatrixPE": 104,
  "RepetitionTime": 1.49,
  "SAR": 0.0367112,
  "ScanOptions": "FS",
  "ScanningSequence": "EP",
  "SequenceName": "epfid2d1_104",
  "SequenceVariant": "SK_SS",
  "SeriesDescription": "func_task-rings",
  "SeriesNumber": 13,
  "ShimSetting": [631, -7265, -8808, 610, -6, -198, 2, -24],
  "SliceThickness": 2,
  "SliceTiming": [0, 0.7825, 0.0975, 0.88, 0.195, 0.98, 0.2925, 1.0775, 0.39, 1.175, 0.49, 1.2725, 0.5875, 1.37, 0.685, 0, 0.7825, 0.0975, 0.88, 0.195, 0.98, 0.2925, 1.0775, 0.39, 1.175, 0.49, 1.2725, 0.5875, 1.37, 0.685, 0, 0.7825, 0.0975, 0.88, 0.195, 0.98, 0.2925, 1.0775, 0.39, 1.175, 0.49, 1.2725, 0.5875, 1.37, 0.685, 0, 0.7825, 0.0975, 0.88, 0.195, 0.98, 0.2925, 1.0775, 0.39, 1.175, 0.49, 1.2725, 0.5875, 1.37, 0.685],
  "SoftwareVersions": "syngo_MR_E11",
  "SpacingBetweenSlices": 2,
  "StationName": "MRC35049",
  "TaskName": "rings",
  "TotalReadoutTime": 0.0576811,
  "TxRefAmp": 238.645,
  "WipMemBlock": "26c735b5-38de-4cd1-b95c-b5f9483a0b00||Sequence: R016 ve11c/master r/e634e98; Dec 19 2017 11:00:25 by eja",
  "dcmmeta_affine": [
    [-1.993905782699585, 0.15342272818088531, 0.02830752730369568, 99.45114135742188],
    [0.13637638092041016, 1.8902653455734253, -0.638982355594635, -72.54688262939453],
    [0.07577157765626907, 0.6351050138473511, 1.8949670791625977, -64.11993408203125],
    [0.0, 0.0, 0.0, 1.0]
],
  "dcmmeta_reorient_transform": [
    [0.0, -1.0, 0.0, 103.0],
    [1.0, 0.0, 0.0, 0.0],
    [0.0, 0.0, 1.0, 0.0],
    [0.0, 0.0, 0.0, 1.0]
],
  "dcmmeta_shape": [104, 104, 60, 202],
  "dcmmeta_slice_dim": 2,
  "dcmmeta_version": 0.6,
  "global": {
    "const": {
      "AcquisitionMatrix": [104, 0, 0, 104],
      "AngioFlag": "N",
      "BitsAllocated": 16,
      "BitsStored": 16,
      "BodyPartExamined": "BRAIN",
      "Columns": 832,
      "EchoNumbers": 1,
      "EchoTime": 37.0,
      "EchoTrainLength": 104,
      "FlipAngle": 52.0,
      "HighBit": 15,
      "ImageOrientationPatient": [0.99695287635127, -0.0681881913602, 0.0378857874929, 0.07671136368046, 0.9451326693868, -0.3175525215457],
      "ImagePositionPatient": [-896.8812504362, -760.56602692477, 204.89326731816],
      "ImageType": [
        "ORIGINAL",
        "PRIMARY",
        "M",
        "MB",
        "ND",
        "MOSAIC"
],
      "ImagedNucleus": "1H",
      "ImagingFrequency": 123.258912,
      "InPlanePhaseEncodingDirection": "COL",
      "MRAcquisitionType": "2D",
      "MagneticFieldStrength": 3.0,
      "Manufacturer": "SIEMENS",
      "ManufacturerModelName": "Prisma_fit",
      "Modality": "MR",
      "NumberOfAverages": 1.0,
      "NumberOfPhaseEncodingSteps": 104,
      "PercentPhaseFieldOfView": 100.0,
      "PercentSampling": 100.0,
      "PerformedProcedureStepStartTime": "160956.053000",
      "PhotometricInterpretation": "MONOCHROME2",
      "PixelBandwidth": 2290.0,
      "PixelRepresentation": 0,
      "PixelSpacing": [2.0, 2.0],
      "ProtocolName": "func_task-rings",
      "RepetitionTime": 1490.0,
      "Rows": 832,
      "SAR": 0.03671124539557,
      "SamplesPerPixel": 1,
      "ScanOptions": "FS",
      "ScanningSequence": "EP",
      "SequenceName": "epfid2d1_104",
      "SequenceVariant": [
        "SK",
        "SS"
],
      "SeriesDescription": "func_task-rings",
      "SeriesNumber": 13,
      "SeriesTime": "162346.906000",
      "SliceLocation": -36.16688621667,
      "SliceThickness": 2.0,
      "SmallestImagePixelValue": 0,
      "SoftwareVersions": "syngo MR E11",
      "SpacingBetweenSlices": 2.0000000059722,
      "SpecificCharacterSet": "ISO_IR 100",
      "StudyID": "1",
      "StudyTime": "160955.989000",
      "TransmitCoilName": "Body",
      "VariableFlipAngleFlag": "N",
      "WindowCenterWidthExplanation": "Algo1",
      "dBdt": 0.0},
    "slices": {}
  },
  "time": {
    "samples": {
      "AcquisitionNumber": [1, 2, 3, 4, 5, 6, 7, 8, 9, 10, 11, 12, 13, 14, 15, 16, 17, 18, 19, 20, 21, 22, 23, 24, 25, 26, 27, 28, 29, 30, 31, 32, 33, 34, 35, 36, 37, 38, 39, 40, 41, 42, 43, 44, 45, 46, 47, 48, 49, 50, 51, 52, 53, 54, 55, 56, 57, 58, 59, 60, 61, 62, 63, 64, 65, 66, 67, 68, 69, 70, 71, 72, 73, 74, 75, 76, 77, 78, 79, 80, 81, 82, 83, 84, 85, 86, 87, 88, 89, 90, 91, 92, 93, 94, 95, 96, 97, 98, 99, 100, 101, 102, 103, 104, 105, 106, 107, 108, 109, 110, 111, 112, 113, 114, 115, 116, 117, 118, 119, 120, 121, 122, 123, 124, 125, 126, 127, 128, 129, 130, 131, 132, 133, 134, 135, 136, 137, 138, 139, 140, 141, 142, 143, 144, 145, 146, 147, 148, 149, 150, 151, 152, 153, 154, 155, 156, 157, 158, 159, 160, 161, 162, 163, 164, 165, 166, 167, 168, 169, 170, 171, 172, 173, 174, 175, 176, 177, 178, 179, 180, 181, 182, 183, 184, 185, 186, 187, 188, 189, 190, 191, 192, 193, 194, 195, 196, 197, 198, 199, 200, 201, 202],
      "AcquisitionTime": ["162225.987500", "162227.477500", "162228.967500", "162230.457500", "162231.947500", "162233.437500", "162234.927500", "162236.417500", "162237.907500", "162239.397500", "162240.887500", "162242.377500", "162243.867500", "162245.357500", "162246.847500", "162248.337500", "162249.827500", "162251.317500", "162252.807500", "162254.297500", "162255.787500", "162257.277500", "162258.767500", "162300.257500", "162301.747500", "162303.237500", "162304.727500", "162306.217500", "162307.707500", "162309.197500", "162310.687500", "162312.177500", "162313.667500", "162315.157500", "162316.647500", "162318.137500", "162319.627500", "162321.117500", "162322.607500", "162324.097500", "162325.587500", "162327.077500", "162328.567500", "162330.057500", "162331.547500", "162333.037500", "162334.527500", "162336.017500", "162337.507500", "162338.997500", "162340.487500", "162341.977500", "162343.467500", "162344.957500", "162346.447500", "162347.937500", "162349.427500", "162350.917500", "162352.407500", "162353.897500", "162355.387500", "162356.877500", "162358.367500", "162359.857500", "162401.347500", "162402.837500", "162404.327500", "162405.817500", "162407.307500", "162408.797500", "162410.287500", "162411.777500", "162413.267500", "162414.757500", "162416.247500", "162417.737500", "162419.227500", "162420.717500", "162422.207500", "162423.697500", "162425.187500", "162426.677500", "162428.167500", "162429.657500", "162431.147500", "162432.637500", "162434.127500", "162435.617500", "162437.107500", "162438.597500", "162440.087500", "162441.577500", "162443.067500", "162444.557500", "162446.047500", "162447.537500", "162449.027500", "162450.517500", "162452.007500", "162453.497500", "162454.987500", "162456.477500", "162457.967500", "162459.457500", "162500.947500", "162502.437500", "162503.927500", "162505.417500", "162506.907500", "162508.397500", "162509.887500", "162511.377500", "162512.867500", "162514.357500", "162515.847500", "162517.337500", "162518.827500", "162520.317500", "162521.807500", "162523.297500", "162524.787500", "162526.277500", "162527.767500", "162529.257500", "162530.747500", "162532.237500", "162533.727500", "162535.217500", "162536.707500", "162538.197500", "162539.687500", "162541.177500", "162542.667500", "162544.157500", "162545.647500", "162547.137500", "162548.627500", "162550.117500", "162551.607500", "162553.097500", "162554.587500", "162556.077500", "162557.567500", "162559.057500", "162600.547500", "162602.037500", "162603.527500", "162605.017500", "162606.507500", "162607.997500", "162609.487500", "162610.977500", "162612.467500", "162613.957500", "162615.447500", "162616.937500", "162618.427500", "162619.917500", "162621.407500", "162622.897500", "162624.387500", "162625.877500", "162627.367500", "162628.857500", "162630.347500", "162631.837500", "162633.327500", "162634.817500", "162636.307500", "162637.797500", "162639.287500", "162640.777500", "162642.267500", "162643.757500", "162645.247500", "162646.737500", "162648.227500", "162649.717500", "162651.207500", "162652.697500", "162654.187500", "162655.677500", "162657.167500", "162658.657500", "162700.147500", "162701.637500", "162703.127500", "162704.617500", "162706.107500", "162707.597500", "162709.087500", "162710.577500", "162712.067500", "162713.557500", "162715.047500", "162716.537500", "162718.027500", "162719.517500", "162721.007500", "162722.497500", "162723.987500", "162725.477500"],
      "ContentTime": ["162346.909000", "162346.913000", "162346.917000", "162346.920000", "162346.923000", "162346.926000", "162346.930000", "162346.933000", "162346.937000", "162346.940000", "162346.943000", "162346.947000", "162346.950000", "162346.953000", "162346.957000", "162346.960000", "162346.963000", "162346.966000", "162346.970000", "162346.973000", "162346.986000", "162346.990000", "162346.993000", "162346.996000", "162346.999000", "162347.003000", "162347.006000", "162347.009000", "162406.874000", "162406.882000", "162406.885000", "162406.888000", "162406.892000", "162406.900000", "162406.903000", "162406.906000", "162406.917000", "162406.920000", "162406.923000", "162406.926000", "162406.930000", "162406.933000", "162406.937000", "162406.940000", "162406.945000", "162406.948000", "162406.952000", "162406.955000", "162426.874000", "162426.878000", "162426.881000", "162426.884000", "162426.888000", "162426.891000", "162426.894000", "162426.898000", "162426.901000", "162426.904000", "162426.908000", "162426.911000", "162426.914000", "162426.917000", "162426.921000", "162426.924000", "162426.927000", "162426.931000", "162426.934000", "162426.937000", "162446.874000", "162446.878000", "162446.881000", "162446.885000", "162446.888000", "162446.891000", "162446.894000", "162446.898000", "162446.901000", "162446.904000", "162446.908000", "162446.911000", "162446.914000", "162446.918000", "162446.921000", "162446.924000", "162446.928000", "162446.931000", "162446.934000", "162446.938000", "162526.874000", "162526.878000", "162526.881000", "162526.885000", "162526.888000", "162526.892000", "162526.895000", "162526.898000", "162526.902000", "162526.905000", "162526.908000", "162526.920000", "162526.923000", "162526.927000", "162526.930000", "162526.933000", "162526.937000", "162526.940000", "162526.943000", "162526.947000", "162526.950000", "162526.953000", "162526.957000", "162526.960000", "162526.963000", "162526.967000", "162526.970000", "162526.973000", "162526.977000", "162526.980000", "162526.983000", "162526.987000", "162526.990000", "162606.875000", "162606.878000", "162606.895000", "162606.898000", "162606.901000", "162606.905000", "162606.908000", "162606.912000", "162606.915000", "162606.918000", "162606.922000", "162606.925000", "162606.929000", "162606.932000", "162606.936000", "162606.939000", "162606.942000", "162606.946000", "162606.949000", "162606.953000", "162606.956000", "162606.959000", "162606.963000", "162606.966000", "162606.969000", "162606.973000", "162646.874000", "162646.878000", "162646.885000", "162646.889000", "162646.892000", "162646.895000", "162646.899000", "162646.902000", "162646.905000", "162646.909000", "162646.912000", "162646.916000", "162646.919000", "162646.922000", "162646.926000", "162646.929000", "162646.932000", "162646.936000", "162646.939000", "162646.943000", "162646.946000", "162646.963000", "162646.967000", "162646.970000", "162646.973000", "162646.977000", "162646.980000", "162726.874000", "162726.878000", "162726.882000", "162726.885000", "162726.889000", "162726.893000", "162726.896000", "162726.899000", "162726.903000", "162726.906000", "162726.910000", "162726.914000", "162726.918000", "162726.929000", "162726.932000", "162726.936000", "162726.940000", "162726.943000", "162726.947000", "162726.950000", "162726.954000", "162726.958000", "162726.961000", "162726.965000", "162726.968000", "162726.972000", "162726.976000", "162727.554000"],
      "InstanceCreationTime": ["162346.909000", "162346.913000", "162346.917000", "162346.920000", "162346.923000", "162346.926000", "162346.930000", "162346.933000", "162346.937000", "162346.940000", "162346.943000", "162346.947000", "162346.950000", "162346.953000", "162346.957000", "162346.960000", "162346.963000", "162346.966000", "162346.970000", "162346.973000", "162346.986000", "162346.990000", "162346.993000", "162346.996000", "162346.999000", "162347.003000", "162347.006000", "162347.009000", "162406.874000", "162406.882000", "162406.885000", "162406.888000", "162406.892000", "162406.900000", "162406.903000", "162406.906000", "162406.917000", "162406.920000", "162406.923000", "162406.926000", "162406.930000", "162406.933000", "162406.937000", "162406.940000", "162406.945000", "162406.948000", "162406.952000", "162406.955000", "162426.874000", "162426.878000", "162426.881000", "162426.884000", "162426.888000", "162426.891000", "162426.894000", "162426.898000", "162426.901000", "162426.904000", "162426.908000", "162426.911000", "162426.914000", "162426.917000", "162426.921000", "162426.924000", "162426.927000", "162426.931000", "162426.934000", "162426.937000", "162446.874000", "162446.878000", "162446.881000", "162446.885000", "162446.888000", "162446.891000", "162446.894000", "162446.898000", "162446.901000", "162446.904000", "162446.908000", "162446.911000", "162446.914000", "162446.918000", "162446.921000", "162446.924000", "162446.928000", "162446.931000", "162446.934000", "162446.938000", "162526.874000", "162526.878000", "162526.881000", "162526.885000", "162526.888000", "162526.892000", "162526.895000", "162526.898000", "162526.902000", "162526.905000", "162526.908000", "162526.920000", "162526.923000", "162526.927000", "162526.930000", "162526.933000", "162526.937000", "162526.940000", "162526.943000", "162526.947000", "162526.950000", "162526.953000", "162526.957000", "162526.960000", "162526.963000", "162526.967000", "162526.970000", "162526.973000", "162526.977000", "162526.980000", "162526.983000", "162526.987000", "162526.990000", "162606.875000", "162606.878000", "162606.895000", "162606.898000", "162606.901000", "162606.905000", "162606.908000", "162606.912000", "162606.915000", "162606.918000", "162606.922000", "162606.925000", "162606.929000", "162606.932000", "162606.936000", "162606.939000", "162606.942000", "162606.946000", "162606.949000", "162606.953000", "162606.956000", "162606.959000", "162606.963000", "162606.966000", "162606.969000", "162606.973000", "162646.874000", "162646.878000", "162646.885000", "162646.889000", "162646.892000", "162646.895000", "162646.899000", "162646.902000", "162646.905000", "162646.909000", "162646.912000", "162646.916000", "162646.919000", "162646.922000", "162646.926000", "162646.929000", "162646.932000", "162646.936000", "162646.939000", "162646.943000", "162646.946000", "162646.963000", "162646.967000", "162646.970000", "162646.973000", "162646.977000", "162646.980000", "162726.874000", "162726.878000", "162726.882000", "162726.885000", "162726.889000", "162726.893000", "162726.896000", "162726.899000", "162726.903000", "162726.906000", "162726.910000", "162726.914000", "162726.918000", "162726.929000", "162726.932000", "162726.936000", "162726.940000", "162726.943000", "162726.947000", "162726.950000", "162726.954000", "162726.958000", "162726.961000", "162726.965000", "162726.968000", "162726.972000", "162726.976000", "162727.554000"],
      "InstanceNumber": [1, 2, 3, 4, 5, 6, 7, 8, 9, 10, 11, 12, 13, 14, 15, 16, 17, 18, 19, 20, 21, 22, 23, 24, 25, 26, 27, 28, 29, 30, 31, 32, 33, 34, 35, 36, 37, 38, 39, 40, 41, 42, 43, 44, 45, 46, 47, 48, 49, 50, 51, 52, 53, 54, 55, 56, 57, 58, 59, 60, 61, 62, 63, 64, 65, 66, 67, 68, 69, 70, 71, 72, 73, 74, 75, 76, 77, 78, 79, 80, 81, 82, 83, 84, 85, 86, 87, 88, 89, 90, 91, 92, 93, 94, 95, 96, 97, 98, 99, 100, 101, 102, 103, 104, 105, 106, 107, 108, 109, 110, 111, 112, 113, 114, 115, 116, 117, 118, 119, 120, 121, 122, 123, 124, 125, 126, 127, 128, 129, 130, 131, 132, 133, 134, 135, 136, 137, 138, 139, 140, 141, 142, 143, 144, 145, 146, 147, 148, 149, 150, 151, 152, 153, 154, 155, 156, 157, 158, 159, 160, 161, 162, 163, 164, 165, 166, 167, 168, 169, 170, 171, 172, 173, 174, 175, 176, 177, 178, 179, 180, 181, 182, 183, 184, 185, 186, 187, 188, 189, 190, 191, 192, 193, 194, 195, 196, 197, 198, 199, 200, 201, 202],
      "LargestImagePixelValue": [42720, 41651, 41544, 41186, 41988, 42226, 40044, 40758, 41446, 42148, 41440, 42010, 41732, 42012, 42037, 40935, 41478, 42557, 42205, 42106, 41983, 42696, 42031, 42063, 42109, 42152, 42501, 40588, 39921, 41832, 42343, 42289, 42164, 42261, 42546, 42650, 41923, 42688, 42098, 42840, 41923, 41946, 41870, 42806, 41504, 42100, 42011, 42676, 42122, 41922, 42258, 42527, 42264, 42057, 42376, 42079, 42558, 42335, 41874, 41993, 42346, 41915, 42424, 41747, 42447, 42505, 42709, 42261, 41336, 41672, 41736, 41623, 41842, 42258, 41222, 42484, 42079, 41782, 41998, 41863, 41382, 41233, 42050, 42089, 42117, 41385, 41334, 39547, 39983, 40209, 41551, 41357, 41375, 41615, 41163, 41601, 41623, 41261, 41102, 41600, 41187, 41302, 42069, 41774, 41422, 41465, 41549, 41429, 41275, 40908, 41401, 41369, 41827, 41513, 41263, 41187, 41429, 41168, 41390, 40762, 41326, 41405, 41717, 41841, 41447, 41903, 41826, 41705, 41897, 41464, 41512, 41359, 41499, 41597, 41779, 41964, 41512, 41731, 41205, 41580, 41155, 41259, 41897, 41129, 41749, 41590, 41477, 41901, 42014, 41549, 40873, 41169, 41642, 41220, 41081, 40611, 40795, 41021, 41477, 41526, 41781, 42251, 42444, 41809, 41574, 41068, 41130, 41439, 41637, 42230, 40871, 41957, 42153, 41070, 40748, 40908, 40779, 40183, 40236, 40062, 40778, 41602, 41951, 41752, 41758, 41678, 41549, 40819, 40847, 41307, 41245, 41481, 41217, 41489, 41624, 42015, 42347, 41802, 41143, 41472, 41421, 41219],
      "WindowCenter": [10383.0, 10328.0, 10308.0, 10237.0, 10226.0, 10229.0, 10221.0, 10228.0, 10233.0, 10252.0, 10249.0, 10254.0, 10257.0, 10251.0, 10234.0, 10217.0, 10216.0, 10242.0, 10273.0, 10300.0, 10304.0, 10294.0, 10279.0, 10278.0, 10286.0, 10293.0, 10300.0, 10297.0, 10316.0, 10322.0, 10308.0, 10298.0, 10302.0, 10312.0, 10309.0, 10286.0, 10272.0, 10286.0, 10286.0, 10290.0, 10280.0, 10274.0, 10281.0, 10291.0, 10278.0, 10306.0, 10311.0, 10317.0, 10303.0, 10297.0, 10288.0, 10278.0, 10271.0, 10272.0, 10272.0, 10252.0, 10248.0, 10255.0, 10248.0, 10246.0, 10262.0, 10279.0, 10287.0, 10268.0, 10288.0, 10330.0, 10334.0, 10297.0, 10278.0, 10281.0, 10277.0, 10279.0, 10286.0, 10291.0, 10266.0, 10263.0, 10255.0, 10246.0, 10258.0, 10267.0, 10266.0, 10273.0, 10291.0, 10317.0, 10311.0, 10293.0, 10277.0, 10289.0, 10321.0, 10315.0, 10294.0, 10292.0, 10281.0, 10279.0, 10268.0, 10255.0, 10238.0, 10231.0, 10232.0, 10252.0, 10255.0, 10273.0, 10310.0, 10308.0, 10293.0, 10295.0, 10296.0, 10296.0, 10300.0, 10306.0, 10315.0, 10314.0, 10298.0, 10282.0, 10266.0, 10259.0, 10265.0, 10266.0, 10269.0, 10270.0, 10284.0, 10291.0, 10298.0, 10289.0, 10303.0, 10342.0, 10375.0, 10373.0, 10356.0, 10333.0, 10324.0, 10316.0, 10315.0, 10314.0, 10306.0, 10297.0, 10291.0, 10283.0, 10276.0, 10281.0, 10277.0, 10274.0, 10286.0, 10298.0, 10315.0, 10317.0, 10301.0, 10281.0, 10289.0, 10328.0, 10331.0, 10301.0, 10295.0, 10284.0, 10270.0, 10256.0, 10240.0, 10215.0, 10209.0, 10231.0, 10255.0, 10273.0, 10271.0, 10253.0, 10259.0, 10278.0, 10302.0, 10314.0, 10317.0, 10327.0, 10339.0, 10357.0, 10362.0, 10361.0, 10380.0, 10358.0, 10332.0, 10338.0, 10343.0, 10286.0, 10273.0, 10282.0, 10289.0, 10261.0, 10226.0, 10213.0, 10219.0, 10218.0, 10211.0, 10224.0, 10231.0, 10239.0, 10256.0, 10304.0, 10347.0, 10341.0, 10337.0, 10330.0, 10330.0, 10312.0, 10282.0, 10270.0],
      "WindowWidth": [22513.0, 22348.0, 22279.0, 22090.0, 22056.0, 22055.0, 22041.0, 22052.0, 22057.0, 22093.0, 22091.0, 22101.0, 22107.0, 22094.0, 22059.0, 22028.0, 22023.0, 22078.0, 22145.0, 22208.0, 22219.0, 22193.0, 22159.0, 22155.0, 22173.0, 22187.0, 22209.0, 22210.0, 22251.0, 22260.0, 22225.0, 22205.0, 22209.0, 22235.0, 22226.0, 22171.0, 22142.0, 22173.0, 22173.0, 22182.0, 22161.0, 22153.0, 22167.0, 22187.0, 22160.0, 22223.0, 22236.0, 22249.0, 22215.0, 22203.0, 22182.0, 22159.0, 22141.0, 22147.0, 22149.0, 22103.0, 22091.0, 22107.0, 22093.0, 22089.0, 22124.0, 22163.0, 22178.0, 22142.0, 22183.0, 22285.0, 22298.0, 22213.0, 22174.0, 22174.0, 22161.0, 22165.0, 22181.0, 22189.0, 22140.0, 22131.0, 22115.0, 22094.0, 22118.0, 22141.0, 22144.0, 22160.0, 22195.0, 22252.0, 22240.0, 22202.0, 22166.0, 22189.0, 22264.0, 22248.0, 22196.0, 22193.0, 22169.0, 22165.0, 22147.0, 22115.0, 22074.0, 22058.0, 22062.0, 22105.0, 22116.0, 22157.0, 22241.0, 22241.0, 22210.0, 22209.0, 22209.0, 22209.0, 22218.0, 22230.0, 22249.0, 22248.0, 22215.0, 22175.0, 22142.0, 22127.0, 22139.0, 22144.0, 22150.0, 22155.0, 22185.0, 22198.0, 22218.0, 22194.0, 22228.0, 22314.0, 22391.0, 22389.0, 22348.0, 22294.0, 22273.0, 22254.0, 22252.0, 22249.0, 22230.0, 22207.0, 22198.0, 22182.0, 22166.0, 22175.0, 22167.0, 22158.0, 22184.0, 22215.0, 22255.0, 22263.0, 22228.0, 22178.0, 22194.0, 22284.0, 22297.0, 22227.0, 22204.0, 22178.0, 22145.0, 22114.0, 22080.0, 22024.0, 22010.0, 22059.0, 22117.0, 22158.0, 22151.0, 22110.0, 22123.0, 22167.0, 22221.0, 22250.0, 22257.0, 22277.0, 22306.0, 22347.0, 22361.0, 22362.0, 22415.0, 22355.0, 22294.0, 22319.0, 22329.0, 22189.0, 22162.0, 22177.0, 22193.0, 22131.0, 22051.0, 22019.0, 22033.0, 22035.0, 22018.0, 22044.0, 22059.0, 22081.0, 22123.0, 22237.0, 22337.0, 22325.0, 22308.0, 22289.0, 22293.0, 22246.0, 22171.0, 22138.0]
    },
    "slices": {}
  }
}