{
  "AcquisitionMatrixPE": 104,
  "AcquisitionNumber": 1,
  "AcquisitionTime": "19:52:20.175000",
  "BandwidthPerPixelPhaseEncode": 17.17,
  "BaseResolution": 104,
  "BodyPartExamined": "BRAIN",
  "CoilCombinationMethod": "Sum of Squares",
  "ConsistencyInfo": "N4_VE11C_LATEST_20160120",
  "ConversionSoftware": "dcm2niix",
  "ConversionSoftwareVersion": "v1.0.20230411",
  "DerivedVendorReportedEchoSpacing": 0.000560011,
  "DeviceSerialNumber": "167006",
  "DwellTime": 2.1e-06,
  "EchoTime": 0.037,
  "EchoTrainLength": 104,
  "EffectiveEchoSpacing": 0.000560011,
  "FlipAngle": 52,
  "HeudiconvVersion": "0.5.3.post861+ge7d3c7f",
  "ImageComments": "Unaliased MB4/PE3/LB",
  "ImageOrientationPatientDICOM": [0.999932, -0.0116369, 0.000657235, 0.0109952, 0.923084, -0.384441],
  "ImageOrientationText": "Tra>Cor(-22.6)>Sag(-0.2)",
  "ImageType": [
    "ORIGINAL",
    "PRIMARY",
    "M",
    "MB",
    "ND",
    "MOSAIC"
],
  "ImagingFrequency": 123.249745,
  "InPlanePhaseEncodingDirectionDICOM": "COL",
  "InstitutionAddress": "Chemin Queen-Mary 4565,Montreal,District,CA,H3W 1W5",
  "InstitutionName": "IUGM",
  "InstitutionalDepartmentName": "Department",
  "MRAcquisitionType": "2D",
  "MagneticFieldStrength": 3,
  "Manufacturer": "Siemens",
  "ManufacturersModelName": "Prisma_fit",
  "MatrixCoilMode": "SENSE",
  "Modality": "MR",
  "MultibandAccelerationFactor": 4,
  "NonlinearGradientCorrection": false,
  "PartialFourier": 1,
  "PatientPosition": "HFS",
  "PercentPhaseFOV": 100,
  "PercentSampling": 100,
  "PhaseEncodingDirection": "j",
  "PhaseEncodingSteps": 104,
  "PhaseResolution": 1,
  "PixelBandwidth": 2290,
  "ProcedureStepDescription": "localizers^retinotopy",
  "ProtocolName": "func_task-wedges",
  "PulseSequenceDetails": "%CustomerSeq%\\cmrr_mbep2d_bold",
  "ReceiveCoilActiveElements": "HC1-7;NC1,2",
  "ReceiveCoilName": "HeadNeck_64",
  "ReconMatrixPE": 104,
  "RepetitionTime": 1.49,
  "SAR": 0.0690705,
  "ScanOptions": "FS",
  "ScanningSequence": "EP",
  "SequenceName": "epfid2d1_104",
  "SequenceVariant": "SK\\SS",
  "SeriesDescription": "func_task-wedges",
  "SeriesNumber": 10,
  "ShimSetting": [585, -7280, -8817, 404, 14, -372, -44, 91],
  "SliceThickness": 2,
  "SliceTiming": [0, 0.785, 0.0975, 0.8825, 0.195, 0.98, 0.295, 1.0775, 0.3925, 1.175, 0.49, 1.275, 0.5875, 1.3725, 0.685, 0, 0.785, 0.0975, 0.8825, 0.195, 0.98, 0.295, 1.0775, 0.3925, 1.175, 0.49, 1.275, 0.5875, 1.3725, 0.685, 0, 0.785, 0.0975, 0.8825, 0.195, 0.98, 0.295, 1.0775, 0.3925, 1.175, 0.49, 1.275, 0.5875, 1.3725, 0.685, 0, 0.785, 0.0975, 0.8825, 0.195, 0.98, 0.295, 1.0775, 0.3925, 1.175, 0.49, 1.275, 0.5875, 1.3725, 0.685],
  "SoftwareVersions": "syngo MR E11",
  "SpacingBetweenSlices": 2,
  "StationName": "MRC35049",
  "TaskName": "wedges",
  "TotalReadoutTime": 0.0576811,
  "TxRefAmp": 290.909,
  "WipMemBlock": "691b305b-3eb1-4caf-80bb-bbfe3b12b897||Sequence: R017 ve11c/master r/75a17815+; Jun 28 2022 16:32:11 by eja",
  "dcmmeta_affine": [
    [-1.999864101409912, 0.021990474313497543, -0.007734016980975866, 103.37284851074219],
    [0.023273766040802002, 1.8461683988571167, -0.7688436508178711, -69.783935546875],
    [0.0013144692638888955, 0.7688814401626587, 1.8462988138198853, -66.34712219238281],
    [0.0, 0.0, 0.0, 1.0]
],
  "dcmmeta_reorient_transform": [
    [0.0, -1.0, 0.0, 103.0],
    [1.0, 0.0, 0.0, 0.0],
    [0.0, 0.0, 1.0, 0.0],
    [0.0, 0.0, 0.0, 1.0]
],
  "dcmmeta_shape": [104, 104, 60, 202],
  "dcmmeta_slice_dim": 2,
  "dcmmeta_version": 0.6,
  "global": {
    "const": {
      "AcquisitionMatrix": [104, 0, 0, 104],
      "AngioFlag": "N",
      "BitsAllocated": 16,
      "BitsStored": 16,
      "BodyPartExamined": "BRAIN",
      "Columns": 832,
      "EchoNumbers": 1,
      "EchoTime": 37.0,
      "EchoTrainLength": 104,
      "FlipAngle": 52.0,
      "HighBit": 15,
      "ImageOrientationPatient": [0.99993207319195, -0.0116368829466, 0.00065723461718, 0.01099523742305, 0.9230842019216, -0.3844407118358],
      "ImagePositionPatient": [-841.59294805558, -783.90505622804, 292.24203616658],
      "ImageType": [
        "ORIGINAL",
        "PRIMARY",
        "M",
        "MB",
        "ND",
        "MOSAIC"
],
      "ImagedNucleus": "1H",
      "ImagingFrequency": 123.249745,
      "InPlanePhaseEncodingDirection": "COL",
      "MRAcquisitionType": "2D",
      "MagneticFieldStrength": 3.0,
      "Manufacturer": "SIEMENS",
      "ManufacturerModelName": "Prisma_fit",
      "Modality": "MR",
      "NumberOfAverages": 1.0,
      "NumberOfPhaseEncodingSteps": 104,
      "PercentPhaseFieldOfView": 100.0,
      "PercentSampling": 100.0,
      "PerformedProcedureStepStartTime": "194717.222000",
      "PhotometricInterpretation": "MONOCHROME2",
      "PixelBandwidth": 2290.0,
      "PixelRepresentation": 0,
      "PixelSpacing": [2.0, 2.0],
      "ProtocolName": "func_task-wedges",
      "RepetitionTime": 1490.0,
      "Rows": 832,
      "SAR": 0.06907051533218,
      "SamplesPerPixel": 1,
      "ScanOptions": "FS",
      "ScanningSequence": "EP",
      "SequenceName": "epfid2d1_104",
      "SequenceVariant": [
        "SK",
        "SS"
],
      "SeriesDescription": "func_task-wedges",
      "SeriesNumber": 10,
      "SeriesTime": "195328.636000",
      "SliceLocation": -34.821584175014,
      "SliceThickness": 2.0,
      "SmallestImagePixelValue": 0,
      "SoftwareVersions": "syngo MR E11",
      "SpacingBetweenSlices": 1.9999999316348,
      "SpecificCharacterSet": "ISO_IR 100",
      "StudyID": "1",
      "StudyTime": "194717.154000",
      "TransmitCoilName": "Body",
      "VariableFlipAngleFlag": "N",
      "WindowCenterWidthExplanation": "Algo1",
      "dBdt": 0.0},
    "slices": {}
  },
  "time": {
    "samples": {
      "AcquisitionNumber": [1, 2, 3, 4, 5, 6, 7, 8, 9, 10, 11, 12, 13, 14, 15, 16, 17, 18, 19, 20, 21, 22, 23, 24, 25, 26, 27, 28, 29, 30, 31, 32, 33, 34, 35, 36, 37, 38, 39, 40, 41, 42, 43, 44, 45, 46, 47, 48, 49, 50, 51, 52, 53, 54, 55, 56, 57, 58, 59, 60, 61, 62, 63, 64, 65, 66, 67, 68, 69, 70, 71, 72, 73, 74, 75, 76, 77, 78, 79, 80, 81, 82, 83, 84, 85, 86, 87, 88, 89, 90, 91, 92, 93, 94, 95, 96, 97, 98, 99, 100, 101, 102, 103, 104, 105, 106, 107, 108, 109, 110, 111, 112, 113, 114, 115, 116, 117, 118, 119, 120, 121, 122, 123, 124, 125, 126, 127, 128, 129, 130, 131, 132, 133, 134, 135, 136, 137, 138, 139, 140, 141, 142, 143, 144, 145, 146, 147, 148, 149, 150, 151, 152, 153, 154, 155, 156, 157, 158, 159, 160, 161, 162, 163, 164, 165, 166, 167, 168, 169, 170, 171, 172, 173, 174, 175, 176, 177, 178, 179, 180, 181, 182, 183, 184, 185, 186, 187, 188, 189, 190, 191, 192, 193, 194, 195, 196, 197, 198, 199, 200, 201, 202],
      "AcquisitionTime": ["195220.175000", "195221.665000", "195223.155000", "195224.645000", "195226.135000", "195227.625000", "195229.115000", "195230.605000", "195232.095000", "195233.585000", "195235.075000", "195236.565000", "195238.055000", "195239.545000", "195241.035000", "195242.525000", "195244.015000", "195245.505000", "195246.995000", "195248.485000", "195249.975000", "195251.465000", "195252.955000", "195254.445000", "195255.935000", "195257.425000", "195258.915000", "195300.405000", "195301.895000", "195303.385000", "195304.875000", "195306.365000", "195307.855000", "195309.345000", "195310.835000", "195312.325000", "195313.815000", "195315.305000", "195316.795000", "195318.285000", "195319.775000", "195321.265000", "195322.755000", "195324.245000", "195325.735000", "195327.225000", "195328.715000", "195330.205000", "195331.695000", "195333.185000", "195334.675000", "195336.165000", "195337.655000", "195339.145000", "195340.635000", "195342.125000", "195343.615000", "195345.105000", "195346.595000", "195348.085000", "195349.575000", "195351.065000", "195352.555000", "195354.045000", "195355.535000", "195357.025000", "195358.515000", "195400.005000", "195401.495000", "195402.985000", "195404.475000", "195405.965000", "195407.455000", "195408.945000", "195410.435000", "195411.925000", "195413.415000", "195414.905000", "195416.395000", "195417.885000", "195419.375000", "195420.865000", "195422.355000", "195423.845000", "195425.335000", "195426.825000", "195428.315000", "195429.805000", "195431.295000", "195432.785000", "195434.275000", "195435.765000", "195437.255000", "195438.745000", "195440.235000", "195441.725000", "195443.215000", "195444.705000", "195446.195000", "195447.685000", "195449.175000", "195450.665000", "195452.155000", "195453.645000", "195455.135000", "195456.625000", "195458.115000", "195459.605000", "195501.095000", "195502.585000", "195504.075000", "195505.565000", "195507.055000", "195508.545000", "195510.035000", "195511.525000", "195513.015000", "195514.505000", "195515.995000", "195517.485000", "195518.975000", "195520.465000", "195521.955000", "195523.445000", "195524.935000", "195526.425000", "195527.915000", "195529.405000", "195530.895000", "195532.385000", "195533.875000", "195535.365000", "195536.855000", "195538.345000", "195539.835000", "195541.325000", "195542.815000", "195544.305000", "195545.795000", "195547.285000", "195548.775000", "195550.265000", "195551.755000", "195553.245000", "195554.735000", "195556.225000", "195557.715000", "195559.205000", "195600.695000", "195602.185000", "195603.675000", "195605.165000", "195606.655000", "195608.145000", "195609.635000", "195611.125000", "195612.615000", "195614.105000", "195615.595000", "195617.085000", "195618.575000", "195620.065000", "195621.555000", "195623.045000", "195624.535000", "195626.025000", "195627.515000", "195629.005000", "195630.495000", "195631.985000", "195633.475000", "195634.965000", "195636.455000", "195637.945000", "195639.435000", "195640.925000", "195642.415000", "195643.905000", "195645.395000", "195646.885000", "195648.375000", "195649.865000", "195651.355000", "195652.845000", "195654.335000", "195655.825000", "195657.315000", "195658.805000", "195700.295000", "195701.785000", "195703.275000", "195704.765000", "195706.255000", "195707.745000", "195709.235000", "195710.725000", "195712.215000", "195713.705000", "195715.195000", "195716.685000", "195718.175000", "195719.665000"],
      "ContentTime": ["195328.640000", "195328.644000", "195328.647000", "195328.651000", "195328.654000", "195328.657000", "195328.661000", "195328.664000", "195328.668000", "195328.675000", "195328.679000", "195328.682000", "195328.694000", "195328.697000", "195328.701000", "195328.704000", "195328.707000", "195328.711000", "195328.714000", "195328.718000", "195348.604000", "195348.608000", "195348.611000", "195348.615000", "195348.618000", "195348.622000", "195348.625000", "195348.629000", "195348.632000", "195348.636000", "195348.639000", "195348.642000", "195348.646000", "195348.649000", "195348.653000", "195348.656000", "195348.659000", "195348.663000", "195348.666000", "195348.670000", "195408.604000", "195408.608000", "195408.612000", "195408.615000", "195408.619000", "195408.622000", "195408.625000", "195408.629000", "195408.632000", "195408.636000", "195408.639000", "195408.642000", "195408.646000", "195408.649000", "195408.653000", "195408.656000", "195408.660000", "195408.663000", "195408.666000", "195408.670000", "195428.605000", "195428.609000", "195428.612000", "195428.616000", "195428.620000", "195428.623000", "195428.626000", "195428.630000", "195428.634000", "195428.637000", "195428.640000", "195428.644000", "195428.647000", "195428.651000", "195428.654000", "195428.657000", "195428.661000", "195428.664000", "195428.668000", "195428.671000", "195428.674000", "195508.605000", "195508.609000", "195508.613000", "195508.616000", "195508.620000", "195508.623000", "195508.626000", "195508.630000", "195508.633000", "195508.637000", "195508.655000", "195508.658000", "195508.662000", "195508.665000", "195508.669000", "195508.672000", "195508.676000", "195508.679000", "195508.682000", "195508.686000", "195508.689000", "195508.693000", "195508.696000", "195508.705000", "195508.709000", "195508.712000", "195508.715000", "195508.719000", "195508.722000", "195508.726000", "195508.729000", "195548.604000", "195548.608000", "195548.612000", "195548.615000", "195548.619000", "195548.622000", "195548.625000", "195548.629000", "195548.632000", "195548.636000", "195548.639000", "195548.643000", "195548.646000", "195548.650000", "195548.653000", "195548.656000", "195548.660000", "195548.663000", "195548.667000", "195548.670000", "195548.674000", "195548.677000", "195548.681000", "195548.684000", "195548.687000", "195548.691000", "195548.694000", "195628.604000", "195628.608000", "195628.612000", "195628.615000", "195628.618000", "195628.622000", "195628.625000", "195628.629000", "195628.632000", "195628.636000", "195628.639000", "195628.643000", "195628.646000", "195628.650000", "195628.653000", "195628.656000", "195628.660000", "195628.663000", "195628.667000", "195628.670000", "195628.674000", "195628.677000", "195628.681000", "195628.684000", "195628.688000", "195628.691000", "195628.695000", "195708.605000", "195708.609000", "195708.613000", "195708.616000", "195708.620000", "195708.623000", "195708.627000", "195708.630000", "195708.634000", "195708.637000", "195708.641000", "195708.644000", "195708.648000", "195708.651000", "195708.655000", "195708.658000", "195708.662000", "195708.665000", "195708.669000", "195708.672000", "195708.676000", "195708.679000", "195708.683000", "195708.686000", "195708.701000", "195708.705000", "195722.100000", "195722.104000", "195722.107000", "195722.111000", "195722.114000", "195722.118000", "195722.122000", "195722.125000", "195722.129000", "195722.133000"],
      "InstanceCreationTime": ["195328.640000", "195328.644000", "195328.647000", "195328.651000", "195328.654000", "195328.657000", "195328.661000", "195328.664000", "195328.668000", "195328.675000", "195328.679000", "195328.682000", "195328.694000", "195328.697000", "195328.701000", "195328.704000", "195328.707000", "195328.711000", "195328.714000", "195328.718000", "195348.604000", "195348.608000", "195348.611000", "195348.615000", "195348.618000", "195348.622000", "195348.625000", "195348.629000", "195348.632000", "195348.636000", "195348.639000", "195348.642000", "195348.646000", "195348.649000", "195348.653000", "195348.656000", "195348.659000", "195348.663000", "195348.666000", "195348.670000", "195408.604000", "195408.608000", "195408.612000", "195408.615000", "195408.619000", "195408.622000", "195408.625000", "195408.629000", "195408.632000", "195408.636000", "195408.639000", "195408.642000", "195408.646000", "195408.649000", "195408.653000", "195408.656000", "195408.660000", "195408.663000", "195408.666000", "195408.670000", "195428.605000", "195428.609000", "195428.612000", "195428.616000", "195428.620000", "195428.623000", "195428.626000", "195428.630000", "195428.634000", "195428.637000", "195428.640000", "195428.644000", "195428.647000", "195428.651000", "195428.654000", "195428.657000", "195428.661000", "195428.664000", "195428.668000", "195428.671000", "195428.674000", "195508.605000", "195508.609000", "195508.613000", "195508.616000", "195508.620000", "195508.623000", "195508.626000", "195508.630000", "195508.633000", "195508.637000", "195508.655000", "195508.658000", "195508.662000", "195508.665000", "195508.669000", "195508.672000", "195508.676000", "195508.679000", "195508.682000", "195508.686000", "195508.689000", "195508.693000", "195508.696000", "195508.705000", "195508.709000", "195508.712000", "195508.715000", "195508.719000", "195508.722000", "195508.726000", "195508.729000", "195548.604000", "195548.608000", "195548.612000", "195548.615000", "195548.619000", "195548.622000", "195548.625000", "195548.629000", "195548.632000", "195548.636000", "195548.639000", "195548.643000", "195548.646000", "195548.650000", "195548.653000", "195548.656000", "195548.660000", "195548.663000", "195548.667000", "195548.670000", "195548.674000", "195548.677000", "195548.681000", "195548.684000", "195548.687000", "195548.691000", "195548.694000", "195628.604000", "195628.608000", "195628.612000", "195628.615000", "195628.618000", "195628.622000", "195628.625000", "195628.629000", "195628.632000", "195628.636000", "195628.639000", "195628.643000", "195628.646000", "195628.650000", "195628.653000", "195628.656000", "195628.660000", "195628.663000", "195628.667000", "195628.670000", "195628.674000", "195628.677000", "195628.681000", "195628.684000", "195628.688000", "195628.691000", "195628.695000", "195708.605000", "195708.609000", "195708.613000", "195708.616000", "195708.620000", "195708.623000", "195708.627000", "195708.630000", "195708.634000", "195708.637000", "195708.641000", "195708.644000", "195708.648000", "195708.651000", "195708.655000", "195708.658000", "195708.662000", "195708.665000", "195708.669000", "195708.672000", "195708.676000", "195708.679000", "195708.683000", "195708.686000", "195708.701000", "195708.705000", "195722.100000", "195722.104000", "195722.107000", "195722.111000", "195722.114000", "195722.118000", "195722.122000", "195722.125000", "195722.129000", "195722.133000"],
      "InstanceNumber": [1, 2, 3, 4, 5, 6, 7, 8, 9, 10, 11, 12, 13, 14, 15, 16, 17, 18, 19, 20, 21, 22, 23, 24, 25, 26, 27, 28, 29, 30, 31, 32, 33, 34, 35, 36, 37, 38, 39, 40, 41, 42, 43, 44, 45, 46, 47, 48, 49, 50, 51, 52, 53, 54, 55, 56, 57, 58, 59, 60, 61, 62, 63, 64, 65, 66, 67, 68, 69, 70, 71, 72, 73, 74, 75, 76, 77, 78, 79, 80, 81, 82, 83, 84, 85, 86, 87, 88, 89, 90, 91, 92, 93, 94, 95, 96, 97, 98, 99, 100, 101, 102, 103, 104, 105, 106, 107, 108, 109, 110, 111, 112, 113, 114, 115, 116, 117, 118, 119, 120, 121, 122, 123, 124, 125, 126, 127, 128, 129, 130, 131, 132, 133, 134, 135, 136, 137, 138, 139, 140, 141, 142, 143, 144, 145, 146, 147, 148, 149, 150, 151, 152, 153, 154, 155, 156, 157, 158, 159, 160, 161, 162, 163, 164, 165, 166, 167, 168, 169, 170, 171, 172, 173, 174, 175, 176, 177, 178, 179, 180, 181, 182, 183, 184, 185, 186, 187, 188, 189, 190, 191, 192, 193, 194, 195, 196, 197, 198, 199, 200, 201, 202],
      "LargestImagePixelValue": [57319, 56233, 55170, 54737, 54693, 54437, 54304, 54554, 53964, 53442, 53940, 53303, 53717, 53381, 53653, 53574, 53814, 53579, 53632, 53224, 52851, 53095, 53533, 52343, 52181, 52565, 52201, 53133, 52369, 51469, 51800, 52544, 52141, 51666, 51549, 51620, 51696, 51586, 51495, 52265, 51729, 52123, 52088, 51670, 52122, 51851, 52146, 51908, 51880, 51518, 52063, 51722, 51108, 51491, 52102, 52358, 53019, 52844, 52853, 52945, 52457, 52429, 52545, 51768, 52465, 52145, 53582, 52529, 53099, 53136, 53137, 53671, 54262, 51941, 52213, 52562, 52994, 53361, 53573, 53363, 53728, 53126, 53059, 52908, 52951, 53424, 53646, 53335, 53751, 53755, 53324, 53952, 52924, 53832, 53730, 53768, 53876, 54291, 53848, 53601, 53533, 53547, 53909, 54386, 54566, 54446, 54416, 54050, 54027, 53838, 53699, 53711, 54242, 54043, 53884, 53205, 53366, 53821, 53817, 52999, 53370, 53752, 53574, 53892, 53906, 54660, 54588, 54024, 53989, 53760, 54866, 53983, 53753, 54107, 54195, 54590, 54215, 54393, 54118, 54381, 54142, 53762, 53496, 53898, 52914, 53122, 53007, 53292, 54110, 54397, 54324, 53684, 54133, 53927, 54272, 53978, 54587, 54330, 54758, 54674, 54413, 54266, 54916, 54310, 54195, 54169, 53670, 53940, 54461, 54504, 54368, 54570, 54305, 54651, 54408, 54170, 54354, 53993, 53954, 54404, 53944, 53870, 54243, 53988, 54142, 53954, 54400, 54503, 54109, 53933, 54610, 54190, 55142, 53007, 53472, 53982, 54318, 54648, 54942, 54294, 54239, 54219],
      "WindowCenter": [10486.0, 10428.0, 10399.0, 10391.0, 10387.0, 10388.0, 10396.0, 10396.0, 10388.0, 10385.0, 10397.0, 10390.0, 10390.0, 10375.0, 10388.0, 10388.0, 10399.0, 10390.0, 10397.0, 10383.0, 10377.0, 10372.0, 10384.0, 10395.0, 10385.0, 10361.0, 10337.0, 10339.0, 10320.0, 10312.0, 10312.0, 10306.0, 10291.0, 10277.0, 10282.0, 10302.0, 10329.0, 10355.0, 10366.0, 10373.0, 10360.0, 10371.0, 10374.0, 10376.0, 10372.0, 10359.0, 10355.0, 10355.0, 10355.0, 10356.0, 10354.0, 10364.0, 10374.0, 10382.0, 10389.0, 10385.0, 10399.0, 10398.0, 10403.0, 10399.0, 10386.0, 10368.0, 10367.0, 10368.0, 10383.0, 10373.0, 10388.0, 10373.0, 10370.0, 10368.0, 10362.0, 10358.0, 10375.0, 10370.0, 10382.0, 10358.0, 10360.0, 10367.0, 10369.0, 10353.0, 10342.0, 10327.0, 10325.0, 10342.0, 10352.0, 10375.0, 10383.0, 10388.0, 10392.0, 10394.0, 10387.0, 10397.0, 10380.0, 10384.0, 10390.0, 10390.0, 10402.0, 10408.0, 10401.0, 10395.0, 10393.0, 10386.0, 10387.0, 10390.0, 10389.0, 10386.0, 10400.0, 10414.0, 10393.0, 10376.0, 10372.0, 10373.0, 10376.0, 10380.0, 10377.0, 10372.0, 10367.0, 10357.0, 10369.0, 10380.0, 10381.0, 10381.0, 10384.0, 10389.0, 10385.0, 10373.0, 10361.0, 10348.0, 10353.0, 10372.0, 10405.0, 10387.0, 10410.0, 10419.0, 10412.0, 10399.0, 10383.0, 10397.0, 10391.0, 10404.0, 10390.0, 10376.0, 10366.0, 10386.0, 10397.0, 10405.0, 10395.0, 10392.0, 10388.0, 10370.0, 10353.0, 10321.0, 10335.0, 10328.0, 10341.0, 10342.0, 10357.0, 10354.0, 10372.0, 10373.0, 10380.0, 10367.0, 10361.0, 10348.0, 10364.0, 10376.0, 10363.0, 10351.0, 10342.0, 10343.0, 10355.0, 10349.0, 10342.0, 10355.0, 10351.0, 10343.0, 10340.0, 10333.0, 10341.0, 10346.0, 10338.0, 10342.0, 10362.0, 10359.0, 10351.0, 10346.0, 10355.0, 10364.0, 10376.0, 10382.0, 10382.0, 10360.0, 10367.0, 10330.0, 10316.0, 10350.0, 10342.0, 10324.0, 10332.0, 10333.0, 10335.0, 10313.0],
      "WindowWidth": [22747.0, 22570.0, 22480.0, 22443.0, 22424.0, 22422.0, 22438.0, 22437.0, 22419.0, 22415.0, 22440.0, 22424.0, 22424.0, 22391.0, 22417.0, 22419.0, 22445.0, 22423.0, 22440.0, 22408.0, 22396.0, 22384.0, 22414.0, 22445.0, 22424.0, 22368.0, 22314.0, 22310.0, 22272.0, 22254.0, 22250.0, 22236.0, 22205.0, 22177.0, 22189.0, 22233.0, 22294.0, 22355.0, 22379.0, 22388.0, 22360.0, 22381.0, 22389.0, 22399.0, 22388.0, 22359.0, 22351.0, 22351.0, 22350.0, 22352.0, 22347.0, 22377.0, 22400.0, 22416.0, 22430.0, 22419.0, 22450.0, 22450.0, 22465.0, 22451.0, 22425.0, 22385.0, 22380.0, 22382.0, 22415.0, 22395.0, 22421.0, 22391.0, 22380.0, 22374.0, 22362.0, 22351.0, 22390.0, 22388.0, 22419.0, 22362.0, 22359.0, 22376.0, 22383.0, 22346.0, 22321.0, 22288.0, 22281.0, 22319.0, 22343.0, 22394.0, 22414.0, 22426.0, 22436.0, 22441.0, 22427.0, 22444.0, 22413.0, 22418.0, 22429.0, 22431.0, 22458.0, 22471.0, 22459.0, 22441.0, 22440.0, 22424.0, 22428.0, 22434.0, 22431.0, 22423.0, 22453.0, 22489.0, 22446.0, 22405.0, 22395.0, 22397.0, 22401.0, 22408.0, 22402.0, 22392.0, 22378.0, 22356.0, 22382.0, 22409.0, 22411.0, 22409.0, 22416.0, 22425.0, 22420.0, 22392.0, 22364.0, 22339.0, 22348.0, 22404.0, 22480.0, 22423.0, 22474.0, 22498.0, 22484.0, 22452.0, 22416.0, 22446.0, 22434.0, 22461.0, 22432.0, 22403.0, 22378.0, 22422.0, 22451.0, 22463.0, 22443.0, 22433.0, 22423.0, 22380.0, 22343.0, 22270.0, 22297.0, 22283.0, 22309.0, 22312.0, 22347.0, 22339.0, 22380.0, 22380.0, 22395.0, 22367.0, 22351.0, 22323.0, 22362.0, 22391.0, 22363.0, 22336.0, 22314.0, 22308.0, 22338.0, 22324.0, 22310.0, 22336.0, 22335.0, 22315.0, 22307.0, 22295.0, 22313.0, 22320.0, 22299.0, 22311.0, 22355.0, 22351.0, 22333.0, 22317.0, 22340.0, 22358.0, 22391.0, 22401.0, 22398.0, 22353.0, 22386.0, 22295.0, 22244.0, 22319.0, 22305.0, 22260.0, 22283.0, 22291.0, 22299.0, 22250.0]
    },
    "slices": {}
  }
}