{
  "AcquisitionMatrixPE": 104,
  "AcquisitionNumber": 1,
  "AcquisitionTime": "20:06:4.362500",
  "BandwidthPerPixelPhaseEncode": 17.17,
  "BaseResolution": 104,
  "BodyPartExamined": "BRAIN",
  "CoilCombinationMethod": "Sum of Squares",
  "ConsistencyInfo": "N4_VE11C_LATEST_20160120",
  "ConversionSoftware": "dcm2niix",
  "ConversionSoftwareVersion": "v1.0.20230411",
  "DerivedVendorReportedEchoSpacing": 0.000560011,
  "DeviceSerialNumber": "167006",
  "DwellTime": 2.1e-06,
  "EchoTime": 0.037,
  "EchoTrainLength": 104,
  "EffectiveEchoSpacing": 0.000560011,
  "FlipAngle": 52,
  "HeudiconvVersion": "0.5.3.post861+ge7d3c7f",
  "ImageComments": "Unaliased MB4/PE3/LB",
  "ImageOrientationPatientDICOM": [0.999932, -0.0116369, 0.000657235, 0.0109952, 0.923084, -0.384441],
  "ImageOrientationText": "Tra>Cor(-22.6)>Sag(-0.2)",
  "ImageType": [
    "ORIGINAL",
    "PRIMARY",
    "M",
    "MB",
    "ND",
    "MOSAIC"
],
  "ImagingFrequency": 123.249749,
  "InPlanePhaseEncodingDirectionDICOM": "COL",
  "InstitutionAddress": "Chemin Queen-Mary 4565,Montreal,District,CA,H3W 1W5",
  "InstitutionName": "IUGM",
  "InstitutionalDepartmentName": "Department",
  "MRAcquisitionType": "2D",
  "MagneticFieldStrength": 3,
  "Manufacturer": "Siemens",
  "ManufacturersModelName": "Prisma_fit",
  "MatrixCoilMode": "SENSE",
  "Modality": "MR",
  "MultibandAccelerationFactor": 4,
  "NonlinearGradientCorrection": false,
  "PartialFourier": 1,
  "PatientPosition": "HFS",
  "PercentPhaseFOV": 100,
  "PercentSampling": 100,
  "PhaseEncodingDirection": "j",
  "PhaseEncodingSteps": 104,
  "PhaseResolution": 1,
  "PixelBandwidth": 2290,
  "ProcedureStepDescription": "localizers^retinotopy",
  "ProtocolName": "func_task-bars",
  "PulseSequenceDetails": "%CustomerSeq%\\cmrr_mbep2d_bold",
  "ReceiveCoilActiveElements": "HC1-7;NC1,2",
  "ReceiveCoilName": "HeadNeck_64",
  "ReconMatrixPE": 104,
  "RepetitionTime": 1.49,
  "SAR": 0.0690705,
  "ScanOptions": "FS",
  "ScanningSequence": "EP",
  "SequenceName": "epfid2d1_104",
  "SequenceVariant": "SK\\SS",
  "SeriesDescription": "func_task-bars",
  "SeriesNumber": 16,
  "ShimSetting": [585, -7280, -8817, 404, 14, -372, -44, 91],
  "SliceThickness": 2,
  "SliceTiming": [0, 0.7825, 0.0975, 0.88, 0.195, 0.98, 0.2925, 1.0775, 0.39, 1.175, 0.49, 1.2725, 0.5875, 1.37, 0.685, 0, 0.7825, 0.0975, 0.88, 0.195, 0.98, 0.2925, 1.0775, 0.39, 1.175, 0.49, 1.2725, 0.5875, 1.37, 0.685, 0, 0.7825, 0.0975, 0.88, 0.195, 0.98, 0.2925, 1.0775, 0.39, 1.175, 0.49, 1.2725, 0.5875, 1.37, 0.685, 0, 0.7825, 0.0975, 0.88, 0.195, 0.98, 0.2925, 1.0775, 0.39, 1.175, 0.49, 1.2725, 0.5875, 1.37, 0.685],
  "SoftwareVersions": "syngo MR E11",
  "SpacingBetweenSlices": 2,
  "StationName": "MRC35049",
  "TaskName": "bars",
  "TotalReadoutTime": 0.0576811,
  "TxRefAmp": 290.909,
  "WipMemBlock": "ef89d445-9098-48b1-ab6b-2e55ff1eae43||Sequence: R017 ve11c/master r/75a17815+; Jun 28 2022 16:32:11 by eja",
  "dcmmeta_affine": [
    [-1.999864101409912, 0.021990474313497543, -0.007734016980975866, 103.37284851074219],
    [0.023273766040802002, 1.8461683988571167, -0.7688436508178711, -69.783935546875],
    [0.0013144692638888955, 0.7688814401626587, 1.8462988138198853, -66.34712219238281],
    [0.0, 0.0, 0.0, 1.0]
],
  "dcmmeta_reorient_transform": [
    [0.0, -1.0, 0.0, 103.0],
    [1.0, 0.0, 0.0, 0.0],
    [0.0, 0.0, 1.0, 0.0],
    [0.0, 0.0, 0.0, 1.0]
],
  "dcmmeta_shape": [104, 104, 60, 202],
  "dcmmeta_slice_dim": 2,
  "dcmmeta_version": 0.6,
  "global": {
    "const": {
      "AcquisitionMatrix": [104, 0, 0, 104],
      "AngioFlag": "N",
      "BitsAllocated": 16,
      "BitsStored": 16,
      "BodyPartExamined": "BRAIN",
      "Columns": 832,
      "EchoNumbers": 1,
      "EchoTime": 37.0,
      "EchoTrainLength": 104,
      "FlipAngle": 52.0,
      "HighBit": 15,
      "ImageOrientationPatient": [0.99993207319195, -0.0116368829466, 0.00065723461718, 0.01099523742305, 0.9230842019216, -0.3844407118358],
      "ImagePositionPatient": [-841.59294805558, -783.90505622804, 292.24203616658],
      "ImageType": [
        "ORIGINAL",
        "PRIMARY",
        "M",
        "MB",
        "ND",
        "MOSAIC"
],
      "ImagedNucleus": "1H",
      "ImagingFrequency": 123.249749,
      "InPlanePhaseEncodingDirection": "COL",
      "MRAcquisitionType": "2D",
      "MagneticFieldStrength": 3.0,
      "Manufacturer": "SIEMENS",
      "ManufacturerModelName": "Prisma_fit",
      "Modality": "MR",
      "NumberOfAverages": 1.0,
      "NumberOfPhaseEncodingSteps": 104,
      "PercentPhaseFieldOfView": 100.0,
      "PercentSampling": 100.0,
      "PerformedProcedureStepStartTime": "194717.222000",
      "PhotometricInterpretation": "MONOCHROME2",
      "PixelBandwidth": 2290.0,
      "PixelRepresentation": 0,
      "PixelSpacing": [2.0, 2.0],
      "ProtocolName": "func_task-bars",
      "RepetitionTime": 1490.0,
      "Rows": 832,
      "SAR": 0.06907051533218,
      "SamplesPerPixel": 1,
      "ScanOptions": "FS",
      "ScanningSequence": "EP",
      "SequenceName": "epfid2d1_104",
      "SequenceVariant": [
        "SK",
        "SS"
],
      "SeriesDescription": "func_task-bars",
      "SeriesNumber": 16,
      "SeriesTime": "200711.201000",
      "SliceLocation": -34.821584175014,
      "SliceThickness": 2.0,
      "SmallestImagePixelValue": 0,
      "SoftwareVersions": "syngo MR E11",
      "SpacingBetweenSlices": 1.9999999316348,
      "SpecificCharacterSet": "ISO_IR 100",
      "StudyID": "1",
      "StudyTime": "194717.154000",
      "TransmitCoilName": "Body",
      "VariableFlipAngleFlag": "N",
      "WindowCenterWidthExplanation": "Algo1",
      "dBdt": 0.0},
    "slices": {}
  },
  "time": {
    "samples": {
      "AcquisitionNumber": [1, 2, 3, 4, 5, 6, 7, 8, 9, 10, 11, 12, 13, 14, 15, 16, 17, 18, 19, 20, 21, 22, 23, 24, 25, 26, 27, 28, 29, 30, 31, 32, 33, 34, 35, 36, 37, 38, 39, 40, 41, 42, 43, 44, 45, 46, 47, 48, 49, 50, 51, 52, 53, 54, 55, 56, 57, 58, 59, 60, 61, 62, 63, 64, 65, 66, 67, 68, 69, 70, 71, 72, 73, 74, 75, 76, 77, 78, 79, 80, 81, 82, 83, 84, 85, 86, 87, 88, 89, 90, 91, 92, 93, 94, 95, 96, 97, 98, 99, 100, 101, 102, 103, 104, 105, 106, 107, 108, 109, 110, 111, 112, 113, 114, 115, 116, 117, 118, 119, 120, 121, 122, 123, 124, 125, 126, 127, 128, 129, 130, 131, 132, 133, 134, 135, 136, 137, 138, 139, 140, 141, 142, 143, 144, 145, 146, 147, 148, 149, 150, 151, 152, 153, 154, 155, 156, 157, 158, 159, 160, 161, 162, 163, 164, 165, 166, 167, 168, 169, 170, 171, 172, 173, 174, 175, 176, 177, 178, 179, 180, 181, 182, 183, 184, 185, 186, 187, 188, 189, 190, 191, 192, 193, 194, 195, 196, 197, 198, 199, 200, 201, 202],
      "AcquisitionTime": ["200604.362500", "200605.852500", "200607.342500", "200608.832500", "200610.322500", "200611.812500", "200613.302500", "200614.792500", "200616.282500", "200617.772500", "200619.262500", "200620.752500", "200622.242500", "200623.732500", "200625.222500", "200626.712500", "200628.202500", "200629.692500", "200631.182500", "200632.672500", "200634.162500", "200635.652500", "200637.142500", "200638.632500", "200640.122500", "200641.612500", "200643.102500", "200644.592500", "200646.082500", "200647.572500", "200649.062500", "200650.552500", "200652.042500", "200653.532500", "200655.022500", "200656.512500", "200658.002500", "200659.492500", "200700.982500", "200702.472500", "200703.962500", "200705.452500", "200706.942500", "200708.432500", "200709.922500", "200711.412500", "200712.902500", "200714.392500", "200715.882500", "200717.372500", "200718.862500", "200720.352500", "200721.842500", "200723.332500", "200724.822500", "200726.312500", "200727.802500", "200729.292500", "200730.782500", "200732.272500", "200733.762500", "200735.252500", "200736.742500", "200738.232500", "200739.722500", "200741.212500", "200742.702500", "200744.192500", "200745.682500", "200747.172500", "200748.662500", "200750.152500", "200751.642500", "200753.132500", "200754.622500", "200756.112500", "200757.602500", "200759.092500", "200800.582500", "200802.072500", "200803.562500", "200805.052500", "200806.542500", "200808.032500", "200809.522500", "200811.012500", "200812.502500", "200813.992500", "200815.482500", "200816.972500", "200818.462500", "200819.952500", "200821.442500", "200822.932500", "200824.422500", "200825.912500", "200827.402500", "200828.892500", "200830.382500", "200831.872500", "200833.362500", "200834.852500", "200836.342500", "200837.832500", "200839.322500", "200840.812500", "200842.302500", "200843.792500", "200845.282500", "200846.772500", "200848.262500", "200849.752500", "200851.242500", "200852.732500", "200854.222500", "200855.712500", "200857.202500", "200858.692500", "200900.182500", "200901.672500", "200903.162500", "200904.652500", "200906.142500", "200907.632500", "200909.122500", "200910.612500", "200912.102500", "200913.592500", "200915.082500", "200916.572500", "200918.062500", "200919.552500", "200921.042500", "200922.532500", "200924.022500", "200925.512500", "200927.002500", "200928.492500", "200929.982500", "200931.472500", "200932.962500", "200934.452500", "200935.942500", "200937.432500", "200938.922500", "200940.412500", "200941.902500", "200943.392500", "200944.882500", "200946.372500", "200947.862500", "200949.352500", "200950.842500", "200952.332500", "200953.822500", "200955.312500", "200956.802500", "200958.292500", "200959.782500", "201001.272500", "201002.762500", "201004.252500", "201005.742500", "201007.232500", "201008.722500", "201010.212500", "201011.702500", "201013.192500", "201014.682500", "201016.172500", "201017.662500", "201019.152500", "201020.642500", "201022.132500", "201023.622500", "201025.112500", "201026.602500", "201028.092500", "201029.582500", "201031.072500", "201032.562500", "201034.052500", "201035.542500", "201037.032500", "201038.522500", "201040.012500", "201041.502500", "201042.992500", "201044.482500", "201045.972500", "201047.462500", "201048.952500", "201050.442500", "201051.932500", "201053.422500", "201054.912500", "201056.402500", "201057.892500", "201059.382500", "201100.872500", "201102.362500", "201103.852500"],
      "ContentTime": ["200711.205000", "200711.210000", "200711.213000", "200711.217000", "200711.220000", "200711.224000", "200711.227000", "200711.231000", "200711.234000", "200711.238000", "200711.241000", "200711.245000", "200711.260000", "200711.264000", "200711.267000", "200711.270000", "200711.274000", "200731.163000", "200731.167000", "200731.171000", "200731.174000", "200731.177000", "200731.181000", "200731.184000", "200731.188000", "200731.191000", "200731.203000", "200731.206000", "200731.210000", "200731.213000", "200731.217000", "200731.220000", "200731.223000", "200731.227000", "200731.230000", "200731.234000", "200731.237000", "200731.240000", "200751.163000", "200751.167000", "200751.170000", "200751.174000", "200751.177000", "200751.181000", "200751.184000", "200751.188000", "200751.191000", "200751.194000", "200751.198000", "200751.201000", "200751.205000", "200751.208000", "200751.211000", "200751.215000", "200751.218000", "200751.222000", "200751.225000", "200751.229000", "200811.164000", "200811.168000", "200811.171000", "200811.175000", "200811.178000", "200811.182000", "200811.185000", "200811.189000", "200811.192000", "200811.196000", "200811.199000", "200811.202000", "200811.206000", "200811.209000", "200811.224000", "200811.227000", "200811.231000", "200811.234000", "200811.238000", "200811.241000", "200831.164000", "200831.168000", "200831.172000", "200831.175000", "200831.178000", "200831.182000", "200831.186000", "200831.189000", "200831.192000", "200831.196000", "200831.205000", "200831.209000", "200831.212000", "200831.216000", "200831.219000", "200831.222000", "200831.226000", "200831.229000", "200831.233000", "200831.236000", "200911.163000", "200911.167000", "200911.171000", "200911.174000", "200911.178000", "200911.181000", "200911.185000", "200911.188000", "200911.191000", "200911.195000", "200911.198000", "200911.202000", "200911.205000", "200911.209000", "200911.212000", "200911.216000", "200911.219000", "200911.222000", "200911.226000", "200911.229000", "200911.233000", "200911.236000", "200911.240000", "200911.243000", "200911.247000", "200911.250000", "200911.253000", "200951.163000", "200951.167000", "200951.171000", "200951.174000", "200951.178000", "200951.181000", "200951.185000", "200951.188000", "200951.192000", "200951.195000", "200951.198000", "200951.202000", "200951.205000", "200951.209000", "200951.212000", "200951.216000", "200951.219000", "200951.223000", "200951.226000", "200951.230000", "200951.233000", "200951.237000", "200951.240000", "200951.244000", "200951.247000", "200951.251000", "201031.164000", "201031.185000", "201031.188000", "201031.192000", "201031.195000", "201031.199000", "201031.202000", "201031.206000", "201031.209000", "201031.212000", "201031.216000", "201031.219000", "201031.223000", "201031.226000", "201031.230000", "201031.233000", "201031.237000", "201031.240000", "201031.243000", "201031.262000", "201031.265000", "201031.269000", "201031.272000", "201031.276000", "201031.279000", "201031.282000", "201031.286000", "201105.815000", "201105.819000", "201105.822000", "201105.826000", "201105.829000", "201105.832000", "201105.836000", "201105.839000", "201105.843000", "201105.846000", "201105.850000", "201105.853000", "201105.857000", "201105.860000", "201105.863000", "201105.867000", "201105.870000", "201105.874000", "201105.877000", "201105.881000", "201105.884000", "201105.888000", "201105.891000", "201105.894000"],
      "InstanceCreationTime": ["200711.205000", "200711.210000", "200711.213000", "200711.217000", "200711.220000", "200711.224000", "200711.227000", "200711.231000", "200711.234000", "200711.238000", "200711.241000", "200711.245000", "200711.260000", "200711.264000", "200711.267000", "200711.270000", "200711.274000", "200731.163000", "200731.167000", "200731.171000", "200731.174000", "200731.177000", "200731.181000", "200731.184000", "200731.188000", "200731.191000", "200731.203000", "200731.206000", "200731.210000", "200731.213000", "200731.217000", "200731.220000", "200731.223000", "200731.227000", "200731.230000", "200731.234000", "200731.237000", "200731.240000", "200751.163000", "200751.167000", "200751.170000", "200751.174000", "200751.177000", "200751.181000", "200751.184000", "200751.188000", "200751.191000", "200751.194000", "200751.198000", "200751.201000", "200751.205000", "200751.208000", "200751.211000", "200751.215000", "200751.218000", "200751.222000", "200751.225000", "200751.229000", "200811.164000", "200811.168000", "200811.171000", "200811.175000", "200811.178000", "200811.182000", "200811.185000", "200811.189000", "200811.192000", "200811.196000", "200811.199000", "200811.202000", "200811.206000", "200811.209000", "200811.224000", "200811.227000", "200811.231000", "200811.234000", "200811.238000", "200811.241000", "200831.164000", "200831.168000", "200831.172000", "200831.175000", "200831.178000", "200831.182000", "200831.186000", "200831.189000", "200831.192000", "200831.196000", "200831.205000", "200831.209000", "200831.212000", "200831.216000", "200831.219000", "200831.222000", "200831.226000", "200831.229000", "200831.233000", "200831.236000", "200911.163000", "200911.167000", "200911.171000", "200911.174000", "200911.178000", "200911.181000", "200911.185000", "200911.188000", "200911.191000", "200911.195000", "200911.198000", "200911.202000", "200911.205000", "200911.209000", "200911.212000", "200911.216000", "200911.219000", "200911.222000", "200911.226000", "200911.229000", "200911.233000", "200911.236000", "200911.240000", "200911.243000", "200911.247000", "200911.250000", "200911.253000", "200951.163000", "200951.167000", "200951.171000", "200951.174000", "200951.178000", "200951.181000", "200951.185000", "200951.188000", "200951.192000", "200951.195000", "200951.198000", "200951.202000", "200951.205000", "200951.209000", "200951.212000", "200951.216000", "200951.219000", "200951.223000", "200951.226000", "200951.230000", "200951.233000", "200951.237000", "200951.240000", "200951.244000", "200951.247000", "200951.251000", "201031.164000", "201031.185000", "201031.188000", "201031.192000", "201031.195000", "201031.199000", "201031.202000", "201031.206000", "201031.209000", "201031.212000", "201031.216000", "201031.219000", "201031.223000", "201031.226000", "201031.230000", "201031.233000", "201031.237000", "201031.240000", "201031.243000", "201031.262000", "201031.265000", "201031.269000", "201031.272000", "201031.276000", "201031.279000", "201031.282000", "201031.286000", "201105.815000", "201105.819000", "201105.822000", "201105.826000", "201105.829000", "201105.832000", "201105.836000", "201105.839000", "201105.843000", "201105.846000", "201105.850000", "201105.853000", "201105.857000", "201105.860000", "201105.863000", "201105.867000", "201105.870000", "201105.874000", "201105.877000", "201105.881000", "201105.884000", "201105.888000", "201105.891000", "201105.894000"],
      "InstanceNumber": [1, 2, 3, 4, 5, 6, 7, 8, 9, 10, 11, 12, 13, 14, 15, 16, 17, 18, 19, 20, 21, 22, 23, 24, 25, 26, 27, 28, 29, 30, 31, 32, 33, 34, 35, 36, 37, 38, 39, 40, 41, 42, 43, 44, 45, 46, 47, 48, 49, 50, 51, 52, 53, 54, 55, 56, 57, 58, 59, 60, 61, 62, 63, 64, 65, 66, 67, 68, 69, 70, 71, 72, 73, 74, 75, 76, 77, 78, 79, 80, 81, 82, 83, 84, 85, 86, 87, 88, 89, 90, 91, 92, 93, 94, 95, 96, 97, 98, 99, 100, 101, 102, 103, 104, 105, 106, 107, 108, 109, 110, 111, 112, 113, 114, 115, 116, 117, 118, 119, 120, 121, 122, 123, 124, 125, 126, 127, 128, 129, 130, 131, 132, 133, 134, 135, 136, 137, 138, 139, 140, 141, 142, 143, 144, 145, 146, 147, 148, 149, 150, 151, 152, 153, 154, 155, 156, 157, 158, 159, 160, 161, 162, 163, 164, 165, 166, 167, 168, 169, 170, 171, 172, 173, 174, 175, 176, 177, 178, 179, 180, 181, 182, 183, 184, 185, 186, 187, 188, 189, 190, 191, 192, 193, 194, 195, 196, 197, 198, 199, 200, 201, 202],
      "LargestImagePixelValue": [57419, 55784, 55133, 54384, 53880, 53052, 53768, 53071, 52623, 52566, 52497, 52941, 52876, 53383, 52637, 52542, 52046, 52188, 52362, 51888, 52050, 52614, 52630, 53261, 53200, 53600, 53659, 53394, 53339, 53417, 53649, 53475, 53601, 53802, 53059, 53241, 53265, 53015, 53485, 52852, 53308, 53349, 53723, 53621, 53709, 54048, 54418, 53810, 53653, 54328, 54109, 54053, 54531, 54030, 53850, 53800, 54071, 54397, 54358, 53881, 53611, 54175, 54371, 53921, 53860, 54161, 53514, 53632, 53919, 54414, 54259, 54981, 54621, 53943, 54518, 53910, 54108, 53755, 54592, 53891, 54706, 53823, 53370, 54000, 53963, 53319, 53774, 53481, 53715, 53691, 53865, 53360, 53547, 53970, 53979, 53891, 53918, 54488, 54323, 54413, 54534, 55415, 54489, 54442, 55517, 55152, 55271, 54850, 55154, 55124, 55267, 55848, 55851, 55630, 55365, 54390, 54805, 55505, 55830, 56080, 56354, 56438, 56405, 56557, 55920, 56507, 56275, 56194, 56338, 56118, 56100, 55861, 55804, 56011, 55617, 55934, 51147, 51499, 55636, 55573, 56502, 56753, 57150, 56930, 56440, 56399, 55768, 56402, 56789, 56309, 56022, 55809, 55234, 56134, 56215, 55948, 56620, 56610, 56490, 56990, 56881, 56329, 56466, 57151, 56361, 56030, 56097, 56107, 55825, 55765, 55517, 55234, 56690, 56639, 55981, 56517, 55898, 55999, 56066, 55959, 56821, 56169, 55827, 55609, 56266, 56050, 56044, 56331, 55778, 56086, 55796, 55811, 55728, 55579, 55818, 55452, 55532, 55650, 55521, 55506, 55955, 55561],
      "WindowCenter": [10452.0, 10384.0, 10353.0, 10350.0, 10356.0, 10341.0, 10340.0, 10336.0, 10330.0, 10333.0, 10333.0, 10338.0, 10338.0, 10345.0, 10331.0, 10319.0, 10314.0, 10313.0, 10326.0, 10320.0, 10319.0, 10333.0, 10339.0, 10363.0, 10341.0, 10335.0, 10311.0, 10303.0, 10285.0, 10265.0, 10283.0, 10314.0, 10312.0, 10303.0, 10276.0, 10256.0, 10245.0, 10253.0, 10283.0, 10287.0, 10304.0, 10314.0, 10314.0, 10316.0, 10321.0, 10329.0, 10326.0, 10341.0, 10333.0, 10347.0, 10340.0, 10334.0, 10329.0, 10305.0, 10305.0, 10315.0, 10305.0, 10295.0, 10285.0, 10275.0, 10259.0, 10259.0, 10275.0, 10279.0, 10282.0, 10296.0, 10292.0, 10289.0, 10294.0, 10319.0, 10329.0, 10319.0, 10316.0, 10296.0, 10307.0, 10288.0, 10314.0, 10315.0, 10328.0, 10306.0, 10301.0, 10280.0, 10263.0, 10264.0, 10269.0, 10274.0, 10277.0, 10290.0, 10298.0, 10302.0, 10325.0, 10328.0, 10311.0, 10290.0, 10275.0, 10261.0, 10245.0, 10243.0, 10248.0, 10216.0, 10145.0, 10287.0, 10265.0, 10271.0, 10271.0, 10273.0, 10302.0, 10320.0, 10329.0, 10345.0, 10367.0, 10362.0, 10346.0, 10328.0, 10325.0, 10318.0, 10336.0, 10347.0, 10366.0, 10372.0, 10378.0, 10388.0, 10391.0, 10395.0, 10392.0, 10392.0, 10364.0, 10413.0, 10358.0, 10382.0, 10379.0, 10385.0, 10386.0, 10384.0, 10375.0, 10383.0, 10361.0, 10354.0, 10388.0, 10397.0, 10398.0, 10375.0, 10368.0, 10361.0, 10369.0, 10404.0, 10410.0, 10393.0, 10391.0, 10397.0, 10379.0, 10354.0, 10335.0, 10340.0, 10349.0, 10340.0, 10356.0, 10365.0, 10365.0, 10382.0, 10375.0, 10361.0, 10365.0, 10369.0, 10364.0, 10358.0, 10366.0, 10379.0, 10385.0, 10385.0, 10377.0, 10369.0, 10401.0, 10392.0, 10387.0, 10392.0, 10374.0, 10366.0, 10372.0, 10382.0, 10379.0, 10368.0, 10359.0, 10372.0, 10373.0, 10363.0, 10359.0, 10373.0, 10370.0, 10375.0, 10374.0, 10380.0, 10388.0, 10395.0, 10407.0, 10410.0, 10413.0, 10405.0, 10390.0, 10372.0, 10380.0, 10379.0],
      "WindowWidth": [22656.0, 22458.0, 22361.0, 22341.0, 22347.0, 22311.0, 22300.0, 22292.0, 22279.0, 22286.0, 22282.0, 22290.0, 22293.0, 22306.0, 22283.0, 22249.0, 22238.0, 22239.0, 22266.0, 22255.0, 22251.0, 22281.0, 22292.0, 22343.0, 22295.0, 22275.0, 22221.0, 22210.0, 22165.0, 22114.0, 22151.0, 22224.0, 22224.0, 22201.0, 22142.0, 22094.0, 22069.0, 22088.0, 22153.0, 22169.0, 22200.0, 22222.0, 22223.0, 22229.0, 22240.0, 22261.0, 22253.0, 22293.0, 22272.0, 22302.0, 22288.0, 22276.0, 22260.0, 22209.0, 22211.0, 22235.0, 22210.0, 22186.0, 22163.0, 22138.0, 22102.0, 22099.0, 22134.0, 22146.0, 22155.0, 22185.0, 22184.0, 22176.0, 22185.0, 22236.0, 22259.0, 22236.0, 22230.0, 22180.0, 22208.0, 22165.0, 22225.0, 22228.0, 22253.0, 22209.0, 22196.0, 22156.0, 22115.0, 22109.0, 22115.0, 22130.0, 22139.0, 22170.0, 22190.0, 22198.0, 22254.0, 22266.0, 22224.0, 22168.0, 22132.0, 22104.0, 22068.0, 22065.0, 22078.0, 21992.0, 21831.0, 22176.0, 22117.0, 22127.0, 22129.0, 22135.0, 22201.0, 22247.0, 22267.0, 22301.0, 22352.0, 22343.0, 22306.0, 22265.0, 22260.0, 22246.0, 22290.0, 22311.0, 22358.0, 22371.0, 22384.0, 22411.0, 22419.0, 22424.0, 22420.0, 22421.0, 22355.0, 22478.0, 22348.0, 22397.0, 22396.0, 22409.0, 22411.0, 22406.0, 22385.0, 22405.0, 22365.0, 22349.0, 22410.0, 22432.0, 22431.0, 22379.0, 22356.0, 22346.0, 22364.0, 22449.0, 22464.0, 22425.0, 22419.0, 22431.0, 22395.0, 22338.0, 22292.0, 22300.0, 22317.0, 22296.0, 22332.0, 22356.0, 22354.0, 22391.0, 22374.0, 22347.0, 22352.0, 22359.0, 22351.0, 22339.0, 22359.0, 22387.0, 22402.0, 22401.0, 22387.0, 22364.0, 22437.0, 22416.0, 22406.0, 22419.0, 22383.0, 22362.0, 22372.0, 22400.0, 22388.0, 22359.0, 22342.0, 22369.0, 22371.0, 22349.0, 22343.0, 22374.0, 22371.0, 22381.0, 22380.0, 22391.0, 22410.0, 22424.0, 22454.0, 22465.0, 22470.0, 22450.0, 22418.0, 22380.0, 22393.0, 22391.0]
    },
    "slices": {}
  }
}