{
  "AcquisitionMatrixPE": 104,
  "AcquisitionNumber": 1,
  "AcquisitionTime": "19:58:35.417500",
  "BandwidthPerPixelPhaseEncode": 17.17,
  "BaseResolution": 104,
  "BodyPartExamined": "BRAIN",
  "CoilCombinationMethod": "Sum of Squares",
  "ConsistencyInfo": "N4_VE11C_LATEST_20160120",
  "ConversionSoftware": "dcm2niix",
  "ConversionSoftwareVersion": "v1.0.20230411",
  "DerivedVendorReportedEchoSpacing": 0.000560011,
  "DeviceSerialNumber": "167006",
  "DwellTime": 2.1e-06,
  "EchoTime": 0.037,
  "EchoTrainLength": 104,
  "EffectiveEchoSpacing": 0.000560011,
  "FlipAngle": 52,
  "HeudiconvVersion": "0.5.3.post861+ge7d3c7f",
  "ImageComments": "Unaliased MB4/PE3/LB",
  "ImageOrientationPatientDICOM": [0.999932, -0.0116369, 0.000657235, 0.0109952, 0.923084, -0.384441],
  "ImageOrientationText": "Tra>Cor(-22.6)>Sag(-0.2)",
  "ImageType": [
    "ORIGINAL",
    "PRIMARY",
    "M",
    "MB",
    "ND",
    "MOSAIC"
],
  "ImagingFrequency": 123.249747,
  "InPlanePhaseEncodingDirectionDICOM": "COL",
  "InstitutionAddress": "Chemin Queen-Mary 4565,Montreal,District,CA,H3W 1W5",
  "InstitutionName": "IUGM",
  "InstitutionalDepartmentName": "Department",
  "MRAcquisitionType": "2D",
  "MagneticFieldStrength": 3,
  "Manufacturer": "Siemens",
  "ManufacturersModelName": "Prisma_fit",
  "MatrixCoilMode": "SENSE",
  "Modality": "MR",
  "MultibandAccelerationFactor": 4,
  "NonlinearGradientCorrection": false,
  "PartialFourier": 1,
  "PatientPosition": "HFS",
  "PercentPhaseFOV": 100,
  "PercentSampling": 100,
  "PhaseEncodingDirection": "j",
  "PhaseEncodingSteps": 104,
  "PhaseResolution": 1,
  "PixelBandwidth": 2290,
  "ProcedureStepDescription": "localizers^retinotopy",
  "ProtocolName": "func_task-rings",
  "PulseSequenceDetails": "%CustomerSeq%\\cmrr_mbep2d_bold",
  "ReceiveCoilActiveElements": "HC1-7;NC1,2",
  "ReceiveCoilName": "HeadNeck_64",
  "ReconMatrixPE": 104,
  "RepetitionTime": 1.49,
  "SAR": 0.0690705,
  "ScanOptions": "FS",
  "ScanningSequence": "EP",
  "SequenceName": "epfid2d1_104",
  "SequenceVariant": "SK\\SS",
  "SeriesDescription": "func_task-rings",
  "SeriesNumber": 13,
  "ShimSetting": [585, -7280, -8817, 404, 14, -372, -44, 91],
  "SliceThickness": 2,
  "SliceTiming": [0, 0.7825, 0.0975, 0.8825, 0.195, 0.98, 0.2925, 1.0775, 0.3925, 1.175, 0.49, 1.2725, 0.5875, 1.3725, 0.685, 0, 0.7825, 0.0975, 0.8825, 0.195, 0.98, 0.2925, 1.0775, 0.3925, 1.175, 0.49, 1.2725, 0.5875, 1.3725, 0.685, 0, 0.7825, 0.0975, 0.8825, 0.195, 0.98, 0.2925, 1.0775, 0.3925, 1.175, 0.49, 1.2725, 0.5875, 1.3725, 0.685, 0, 0.7825, 0.0975, 0.8825, 0.195, 0.98, 0.2925, 1.0775, 0.3925, 1.175, 0.49, 1.2725, 0.5875, 1.3725, 0.685],
  "SoftwareVersions": "syngo MR E11",
  "SpacingBetweenSlices": 2,
  "StationName": "MRC35049",
  "TaskName": "rings",
  "TotalReadoutTime": 0.0576811,
  "TxRefAmp": 290.909,
  "WipMemBlock": "d014c4a8-a73a-4fd1-b49b-7f57138104e5||Sequence: R017 ve11c/master r/75a17815+; Jun 28 2022 16:32:11 by eja",
  "dcmmeta_affine": [
    [-1.999864101409912, 0.021990474313497543, -0.007734016980975866, 103.37284851074219],
    [0.023273766040802002, 1.8461683988571167, -0.7688436508178711, -69.783935546875],
    [0.0013144692638888955, 0.7688814401626587, 1.8462988138198853, -66.34712219238281],
    [0.0, 0.0, 0.0, 1.0]
],
  "dcmmeta_reorient_transform": [
    [0.0, -1.0, 0.0, 103.0],
    [1.0, 0.0, 0.0, 0.0],
    [0.0, 0.0, 1.0, 0.0],
    [0.0, 0.0, 0.0, 1.0]
],
  "dcmmeta_shape": [104, 104, 60, 202],
  "dcmmeta_slice_dim": 2,
  "dcmmeta_version": 0.6,
  "global": {
    "const": {
      "AcquisitionMatrix": [104, 0, 0, 104],
      "AngioFlag": "N",
      "BitsAllocated": 16,
      "BitsStored": 16,
      "BodyPartExamined": "BRAIN",
      "Columns": 832,
      "EchoNumbers": 1,
      "EchoTime": 37.0,
      "EchoTrainLength": 104,
      "FlipAngle": 52.0,
      "HighBit": 15,
      "ImageOrientationPatient": [0.99993207319195, -0.0116368829466, 0.00065723461718, 0.01099523742305, 0.9230842019216, -0.3844407118358],
      "ImagePositionPatient": [-841.59294805558, -783.90505622804, 292.24203616658],
      "ImageType": [
        "ORIGINAL",
        "PRIMARY",
        "M",
        "MB",
        "ND",
        "MOSAIC"
],
      "ImagedNucleus": "1H",
      "ImagingFrequency": 123.249747,
      "InPlanePhaseEncodingDirection": "COL",
      "MRAcquisitionType": "2D",
      "MagneticFieldStrength": 3.0,
      "Manufacturer": "SIEMENS",
      "ManufacturerModelName": "Prisma_fit",
      "Modality": "MR",
      "NumberOfAverages": 1.0,
      "NumberOfPhaseEncodingSteps": 104,
      "PercentPhaseFieldOfView": 100.0,
      "PercentSampling": 100.0,
      "PerformedProcedureStepStartTime": "194717.222000",
      "PhotometricInterpretation": "MONOCHROME2",
      "PixelBandwidth": 2290.0,
      "PixelRepresentation": 0,
      "PixelSpacing": [2.0, 2.0],
      "ProtocolName": "func_task-rings",
      "RepetitionTime": 1490.0,
      "Rows": 832,
      "SAR": 0.06907051533218,
      "SamplesPerPixel": 1,
      "ScanOptions": "FS",
      "ScanningSequence": "EP",
      "SequenceName": "epfid2d1_104",
      "SequenceVariant": [
        "SK",
        "SS"
],
      "SeriesDescription": "func_task-rings",
      "SeriesNumber": 13,
      "SeriesTime": "195959.539000",
      "SliceLocation": -34.821584175014,
      "SliceThickness": 2.0,
      "SmallestImagePixelValue": 0,
      "SoftwareVersions": "syngo MR E11",
      "SpacingBetweenSlices": 1.9999999316348,
      "SpecificCharacterSet": "ISO_IR 100",
      "StudyID": "1",
      "StudyTime": "194717.154000",
      "TransmitCoilName": "Body",
      "VariableFlipAngleFlag": "N",
      "WindowCenterWidthExplanation": "Algo1",
      "dBdt": 0.0},
    "slices": {}
  },
  "time": {
    "samples": {
      "AcquisitionNumber": [1, 2, 3, 4, 5, 6, 7, 8, 9, 10, 11, 12, 13, 14, 15, 16, 17, 18, 19, 20, 21, 22, 23, 24, 25, 26, 27, 28, 29, 30, 31, 32, 33, 34, 35, 36, 37, 38, 39, 40, 41, 42, 43, 44, 45, 46, 47, 48, 49, 50, 51, 52, 53, 54, 55, 56, 57, 58, 59, 60, 61, 62, 63, 64, 65, 66, 67, 68, 69, 70, 71, 72, 73, 74, 75, 76, 77, 78, 79, 80, 81, 82, 83, 84, 85, 86, 87, 88, 89, 90, 91, 92, 93, 94, 95, 96, 97, 98, 99, 100, 101, 102, 103, 104, 105, 106, 107, 108, 109, 110, 111, 112, 113, 114, 115, 116, 117, 118, 119, 120, 121, 122, 123, 124, 125, 126, 127, 128, 129, 130, 131, 132, 133, 134, 135, 136, 137, 138, 139, 140, 141, 142, 143, 144, 145, 146, 147, 148, 149, 150, 151, 152, 153, 154, 155, 156, 157, 158, 159, 160, 161, 162, 163, 164, 165, 166, 167, 168, 169, 170, 171, 172, 173, 174, 175, 176, 177, 178, 179, 180, 181, 182, 183, 184, 185, 186, 187, 188, 189, 190, 191, 192, 193, 194, 195, 196, 197, 198, 199, 200, 201, 202],
      "AcquisitionTime": ["195835.417500", "195836.907500", "195838.397500", "195839.887500", "195841.377500", "195842.867500", "195844.357500", "195845.847500", "195847.337500", "195848.827500", "195850.317500", "195851.807500", "195853.297500", "195854.787500", "195856.277500", "195857.767500", "195859.257500", "195900.747500", "195902.237500", "195903.727500", "195905.217500", "195906.707500", "195908.197500", "195909.687500", "195911.177500", "195912.667500", "195914.157500", "195915.647500", "195917.137500", "195918.627500", "195920.117500", "195921.607500", "195923.097500", "195924.587500", "195926.077500", "195927.567500", "195929.057500", "195930.547500", "195932.037500", "195933.527500", "195935.017500", "195936.507500", "195937.997500", "195939.487500", "195940.977500", "195942.467500", "195943.957500", "195945.447500", "195946.937500", "195948.427500", "195949.917500", "195951.407500", "195952.897500", "195954.387500", "195955.877500", "195957.367500", "195958.857500", "200000.347500", "200001.837500", "200003.327500", "200004.817500", "200006.307500", "200007.797500", "200009.287500", "200010.777500", "200012.267500", "200013.757500", "200015.247500", "200016.737500", "200018.227500", "200019.717500", "200021.207500", "200022.697500", "200024.187500", "200025.677500", "200027.167500", "200028.657500", "200030.147500", "200031.637500", "200033.127500", "200034.617500", "200036.107500", "200037.597500", "200039.087500", "200040.577500", "200042.067500", "200043.557500", "200045.047500", "200046.537500", "200048.027500", "200049.517500", "200051.007500", "200052.497500", "200053.987500", "200055.477500", "200056.967500", "200058.457500", "200059.947500", "200101.437500", "200102.927500", "200104.417500", "200105.907500", "200107.397500", "200108.887500", "200110.377500", "200111.867500", "200113.357500", "200114.847500", "200116.337500", "200117.827500", "200119.317500", "200120.807500", "200122.297500", "200123.787500", "200125.277500", "200126.767500", "200128.257500", "200129.747500", "200131.237500", "200132.727500", "200134.217500", "200135.707500", "200137.197500", "200138.687500", "200140.177500", "200141.667500", "200143.157500", "200144.647500", "200146.137500", "200147.627500", "200149.117500", "200150.607500", "200152.097500", "200153.587500", "200155.077500", "200156.567500", "200158.057500", "200159.547500", "200201.037500", "200202.527500", "200204.017500", "200205.507500", "200206.997500", "200208.487500", "200209.977500", "200211.467500", "200212.957500", "200214.447500", "200215.937500", "200217.427500", "200218.917500", "200220.407500", "200221.897500", "200223.387500", "200224.877500", "200226.367500", "200227.857500", "200229.347500", "200230.837500", "200232.327500", "200233.817500", "200235.307500", "200236.797500", "200238.287500", "200239.777500", "200241.267500", "200242.757500", "200244.247500", "200245.737500", "200247.227500", "200248.717500", "200250.207500", "200251.697500", "200253.187500", "200254.677500", "200256.167500", "200257.657500", "200259.147500", "200300.637500", "200302.127500", "200303.617500", "200305.107500", "200306.597500", "200308.087500", "200309.577500", "200311.067500", "200312.557500", "200314.047500", "200315.537500", "200317.027500", "200318.517500", "200320.007500", "200321.497500", "200322.987500", "200324.477500", "200325.967500", "200327.457500", "200328.947500", "200330.437500", "200331.927500", "200333.417500", "200334.907500"],
      "ContentTime": ["195959.542000", "195959.546000", "195959.549000", "195959.553000", "195959.556000", "195959.560000", "195959.563000", "195959.566000", "195959.570000", "195959.573000", "195959.577000", "195959.580000", "195959.583000", "195959.587000", "195959.590000", "195959.594000", "195959.597000", "195959.601000", "195959.604000", "195959.607000", "195959.611000", "195959.614000", "195959.618000", "195959.627000", "195959.630000", "195959.634000", "195959.637000", "195959.641000", "195959.644000", "195959.647000", "195959.651000", "195959.654000", "195959.658000", "195959.661000", "200019.499000", "200019.503000", "200019.506000", "200019.510000", "200019.513000", "200019.517000", "200019.520000", "200019.523000", "200019.527000", "200019.530000", "200019.534000", "200019.537000", "200019.540000", "200019.544000", "200019.547000", "200019.551000", "200019.554000", "200019.557000", "200019.561000", "200019.564000", "200039.499000", "200039.503000", "200039.506000", "200039.510000", "200039.513000", "200039.517000", "200039.520000", "200039.523000", "200039.527000", "200039.530000", "200039.534000", "200039.537000", "200039.541000", "200039.544000", "200039.547000", "200039.551000", "200039.554000", "200039.558000", "200039.562000", "200039.565000", "200059.498000", "200059.502000", "200059.505000", "200059.517000", "200059.520000", "200059.524000", "200059.527000", "200059.531000", "200059.534000", "200059.537000", "200059.541000", "200059.544000", "200059.548000", "200059.551000", "200059.555000", "200059.558000", "200059.562000", "200059.565000", "200059.569000", "200059.572000", "200059.575000", "200139.498000", "200139.502000", "200139.511000", "200139.514000", "200139.517000", "200139.521000", "200139.524000", "200139.528000", "200139.531000", "200139.535000", "200139.538000", "200139.542000", "200139.545000", "200139.549000", "200139.552000", "200139.556000", "200139.559000", "200139.563000", "200139.566000", "200139.569000", "200139.573000", "200139.576000", "200139.580000", "200139.583000", "200139.587000", "200139.590000", "200139.594000", "200219.498000", "200219.502000", "200219.506000", "200219.509000", "200219.513000", "200219.516000", "200219.519000", "200219.523000", "200219.526000", "200219.530000", "200219.533000", "200219.537000", "200219.540000", "200219.544000", "200219.547000", "200219.550000", "200219.554000", "200219.557000", "200219.561000", "200219.564000", "200219.568000", "200219.571000", "200219.575000", "200219.578000", "200219.582000", "200219.585000", "200219.589000", "200259.499000", "200259.503000", "200259.506000", "200259.510000", "200259.513000", "200259.517000", "200259.520000", "200259.523000", "200259.527000", "200259.530000", "200259.534000", "200259.537000", "200259.540000", "200259.544000", "200259.547000", "200259.551000", "200259.554000", "200259.558000", "200259.561000", "200259.564000", "200259.568000", "200259.571000", "200259.583000", "200259.587000", "200259.590000", "200259.594000", "200259.597000", "200337.503000", "200337.507000", "200337.510000", "200337.514000", "200337.517000", "200337.521000", "200337.524000", "200337.528000", "200337.531000", "200337.535000", "200337.539000", "200337.542000", "200337.546000", "200337.550000", "200337.553000", "200337.557000", "200337.560000", "200337.564000", "200337.567000", "200337.570000", "200337.574000", "200337.577000", "200337.581000", "200337.584000", "200337.588000", "200337.591000"],
      "InstanceCreationTime": ["195959.542000", "195959.546000", "195959.549000", "195959.553000", "195959.556000", "195959.560000", "195959.563000", "195959.566000", "195959.570000", "195959.573000", "195959.577000", "195959.580000", "195959.583000", "195959.587000", "195959.590000", "195959.594000", "195959.597000", "195959.601000", "195959.604000", "195959.607000", "195959.611000", "195959.614000", "195959.618000", "195959.627000", "195959.630000", "195959.634000", "195959.637000", "195959.641000", "195959.644000", "195959.647000", "195959.651000", "195959.654000", "195959.658000", "195959.661000", "200019.499000", "200019.503000", "200019.506000", "200019.510000", "200019.513000", "200019.517000", "200019.520000", "200019.523000", "200019.527000", "200019.530000", "200019.534000", "200019.537000", "200019.540000", "200019.544000", "200019.547000", "200019.551000", "200019.554000", "200019.557000", "200019.561000", "200019.564000", "200039.499000", "200039.503000", "200039.506000", "200039.510000", "200039.513000", "200039.517000", "200039.520000", "200039.523000", "200039.527000", "200039.530000", "200039.534000", "200039.537000", "200039.541000", "200039.544000", "200039.547000", "200039.551000", "200039.554000", "200039.558000", "200039.562000", "200039.565000", "200059.498000", "200059.502000", "200059.505000", "200059.517000", "200059.520000", "200059.524000", "200059.527000", "200059.531000", "200059.534000", "200059.537000", "200059.541000", "200059.544000", "200059.548000", "200059.551000", "200059.555000", "200059.558000", "200059.562000", "200059.565000", "200059.569000", "200059.572000", "200059.575000", "200139.498000", "200139.502000", "200139.511000", "200139.514000", "200139.517000", "200139.521000", "200139.524000", "200139.528000", "200139.531000", "200139.535000", "200139.538000", "200139.542000", "200139.545000", "200139.549000", "200139.552000", "200139.556000", "200139.559000", "200139.563000", "200139.566000", "200139.569000", "200139.573000", "200139.576000", "200139.580000", "200139.583000", "200139.587000", "200139.590000", "200139.594000", "200219.498000", "200219.502000", "200219.506000", "200219.509000", "200219.513000", "200219.516000", "200219.519000", "200219.523000", "200219.526000", "200219.530000", "200219.533000", "200219.537000", "200219.540000", "200219.544000", "200219.547000", "200219.550000", "200219.554000", "200219.557000", "200219.561000", "200219.564000", "200219.568000", "200219.571000", "200219.575000", "200219.578000", "200219.582000", "200219.585000", "200219.589000", "200259.499000", "200259.503000", "200259.506000", "200259.510000", "200259.513000", "200259.517000", "200259.520000", "200259.523000", "200259.527000", "200259.530000", "200259.534000", "200259.537000", "200259.540000", "200259.544000", "200259.547000", "200259.551000", "200259.554000", "200259.558000", "200259.561000", "200259.564000", "200259.568000", "200259.571000", "200259.583000", "200259.587000", "200259.590000", "200259.594000", "200259.597000", "200337.503000", "200337.507000", "200337.510000", "200337.514000", "200337.517000", "200337.521000", "200337.524000", "200337.528000", "200337.531000", "200337.535000", "200337.539000", "200337.542000", "200337.546000", "200337.550000", "200337.553000", "200337.557000", "200337.560000", "200337.564000", "200337.567000", "200337.570000", "200337.574000", "200337.577000", "200337.581000", "200337.584000", "200337.588000", "200337.591000"],
      "InstanceNumber": [1, 2, 3, 4, 5, 6, 7, 8, 9, 10, 11, 12, 13, 14, 15, 16, 17, 18, 19, 20, 21, 22, 23, 24, 25, 26, 27, 28, 29, 30, 31, 32, 33, 34, 35, 36, 37, 38, 39, 40, 41, 42, 43, 44, 45, 46, 47, 48, 49, 50, 51, 52, 53, 54, 55, 56, 57, 58, 59, 60, 61, 62, 63, 64, 65, 66, 67, 68, 69, 70, 71, 72, 73, 74, 75, 76, 77, 78, 79, 80, 81, 82, 83, 84, 85, 86, 87, 88, 89, 90, 91, 92, 93, 94, 95, 96, 97, 98, 99, 100, 101, 102, 103, 104, 105, 106, 107, 108, 109, 110, 111, 112, 113, 114, 115, 116, 117, 118, 119, 120, 121, 122, 123, 124, 125, 126, 127, 128, 129, 130, 131, 132, 133, 134, 135, 136, 137, 138, 139, 140, 141, 142, 143, 144, 145, 146, 147, 148, 149, 150, 151, 152, 153, 154, 155, 156, 157, 158, 159, 160, 161, 162, 163, 164, 165, 166, 167, 168, 169, 170, 171, 172, 173, 174, 175, 176, 177, 178, 179, 180, 181, 182, 183, 184, 185, 186, 187, 188, 189, 190, 191, 192, 193, 194, 195, 196, 197, 198, 199, 200, 201, 202],
      "LargestImagePixelValue": [60336, 57446, 56104, 56426, 55965, 55650, 55663, 55047, 55034, 55325, 55860, 56219, 56190, 55858, 55621, 55812, 55954, 55940, 55674, 55818, 55716, 55231, 55323, 55665, 55800, 55290, 55383, 55795, 56215, 55826, 55559, 55359, 55849, 55809, 55554, 55663, 55437, 55379, 55281, 55798, 56365, 55470, 55698, 55069, 55082, 56238, 55421, 55943, 55266, 55666, 55396, 55817, 55812, 55654, 56071, 54717, 54151, 54816, 55264, 55135, 55841, 56516, 55979, 55871, 56201, 55660, 55363, 55126, 55032, 54905, 54663, 54902, 54815, 54903, 55312, 55300, 55021, 55416, 54850, 54682, 55128, 55121, 55973, 55425, 56107, 55950, 55989, 55615, 55646, 56153, 55472, 55335, 55696, 55461, 55513, 55593, 55455, 56115, 55623, 55947, 55738, 55478, 55785, 56240, 56228, 55631, 55677, 55832, 55133, 55164, 55899, 55556, 55737, 55849, 55326, 55663, 55626, 55234, 55615, 55246, 54963, 55484, 55286, 55002, 55306, 55246, 55145, 55820, 55873, 55020, 55133, 55303, 55800, 55955, 55733, 55792, 55711, 55754, 55483, 55799, 55463, 54908, 55626, 55594, 55315, 55347, 55681, 54999, 55711, 55959, 56168, 55426, 55684, 55615, 55248, 55513, 55136, 55115, 54927, 55168, 54281, 55500, 55298, 55256, 55027, 55841, 55724, 54882, 55276, 55334, 55393, 54800, 55038, 55167, 55415, 55734, 55481, 55493, 55227, 55110, 54989, 55268, 55484, 55106, 54782, 55124, 55514, 55483, 55228, 55940, 56129, 55783, 55911, 56112, 55936, 55855, 56054, 55576, 55754, 55291, 54981, 55420],
      "WindowCenter": [10485.0, 10432.0, 10406.0, 10401.0, 10377.0, 10358.0, 10340.0, 10348.0, 10364.0, 10368.0, 10375.0, 10374.0, 10359.0, 10342.0, 10325.0, 10330.0, 10350.0, 10369.0, 10373.0, 10389.0, 10398.0, 10403.0, 10401.0, 10401.0, 10383.0, 10373.0, 10358.0, 10364.0, 10374.0, 10363.0, 10356.0, 10342.0, 10344.0, 10353.0, 10363.0, 10366.0, 10359.0, 10358.0, 10350.0, 10354.0, 10370.0, 10375.0, 10375.0, 10354.0, 10333.0, 10335.0, 10320.0, 10332.0, 10331.0, 10344.0, 10338.0, 10324.0, 10319.0, 10324.0, 10371.0, 10371.0, 10340.0, 10333.0, 10329.0, 10336.0, 10336.0, 10342.0, 10308.0, 10286.0, 10277.0, 10270.0, 10283.0, 10302.0, 10311.0, 10313.0, 10299.0, 10295.0, 10295.0, 10311.0, 10328.0, 10338.0, 10339.0, 10356.0, 10362.0, 10360.0, 10350.0, 10341.0, 10372.0, 10368.0, 10381.0, 10374.0, 10352.0, 10335.0, 10323.0, 10335.0, 10331.0, 10347.0, 10355.0, 10357.0, 10357.0, 10365.0, 10363.0, 10363.0, 10357.0, 10370.0, 10355.0, 10349.0, 10357.0, 10378.0, 10385.0, 10396.0, 10396.0, 10399.0, 10380.0, 10389.0, 10379.0, 10360.0, 10353.0, 10358.0, 10342.0, 10339.0, 10341.0, 10356.0, 10363.0, 10375.0, 10385.0, 10394.0, 10386.0, 10382.0, 10371.0, 10362.0, 10352.0, 10367.0, 10361.0, 10375.0, 10364.0, 10351.0, 10360.0, 10349.0, 10340.0, 10332.0, 10336.0, 10346.0, 10347.0, 10362.0, 10359.0, 10351.0, 10365.0, 10374.0, 10380.0, 10367.0, 10374.0, 10355.0, 10358.0, 10356.0, 10351.0, 10350.0, 10345.0, 10346.0, 10333.0, 10339.0, 10348.0, 10349.0, 10334.0, 10341.0, 10349.0, 10332.0, 10338.0, 10339.0, 10326.0, 10343.0, 10355.0, 10358.0, 10365.0, 10360.0, 10349.0, 10340.0, 10339.0, 10347.0, 10348.0, 10365.0, 10307.0, 10341.0, 10352.0, 10368.0, 10368.0, 10341.0, 10300.0, 10289.0, 10295.0, 10362.0, 10355.0, 10325.0, 10296.0, 10290.0, 10294.0, 10294.0, 10314.0, 10320.0, 10330.0, 10345.0, 10346.0, 10325.0, 10312.0, 10311.0, 10323.0, 10342.0],
      "WindowWidth": [22732.0, 22562.0, 22479.0, 22453.0, 22392.0, 22344.0, 22301.0, 22316.0, 22352.0, 22364.0, 22374.0, 22372.0, 22338.0, 22300.0, 22261.0, 22267.0, 22310.0, 22354.0, 22369.0, 22404.0, 22428.0, 22441.0, 22438.0, 22435.0, 22393.0, 22370.0, 22336.0, 22347.0, 22365.0, 22343.0, 22327.0, 22298.0, 22300.0, 22320.0, 22343.0, 22353.0, 22337.0, 22334.0, 22317.0, 22323.0, 22359.0, 22373.0, 22369.0, 22324.0, 22272.0, 22274.0, 22244.0, 22265.0, 22266.0, 22291.0, 22280.0, 22252.0, 22240.0, 22252.0, 22365.0, 22373.0, 22304.0, 22280.0, 22267.0, 22281.0, 22275.0, 22288.0, 22213.0, 22162.0, 22145.0, 22130.0, 22157.0, 22203.0, 22222.0, 22226.0, 22197.0, 22181.0, 22182.0, 22220.0, 22261.0, 22283.0, 22288.0, 22329.0, 22349.0, 22340.0, 22314.0, 22294.0, 22365.0, 22358.0, 22380.0, 22366.0, 22318.0, 22279.0, 22250.0, 22277.0, 22273.0, 22307.0, 22325.0, 22329.0, 22330.0, 22347.0, 22343.0, 22341.0, 22331.0, 22356.0, 22327.0, 22314.0, 22330.0, 22378.0, 22393.0, 22419.0, 22419.0, 22429.0, 22389.0, 22409.0, 22381.0, 22336.0, 22319.0, 22327.0, 22293.0, 22285.0, 22291.0, 22324.0, 22338.0, 22370.0, 22392.0, 22411.0, 22393.0, 22387.0, 22361.0, 22343.0, 22320.0, 22352.0, 22335.0, 22371.0, 22350.0, 22316.0, 22335.0, 22308.0, 22289.0, 22273.0, 22282.0, 22307.0, 22310.0, 22343.0, 22339.0, 22320.0, 22351.0, 22374.0, 22390.0, 22354.0, 22366.0, 22326.0, 22330.0, 22324.0, 22312.0, 22312.0, 22299.0, 22303.0, 22276.0, 22291.0, 22310.0, 22312.0, 22281.0, 22297.0, 22323.0, 22273.0, 22284.0, 22287.0, 22258.0, 22292.0, 22325.0, 22338.0, 22352.0, 22342.0, 22315.0, 22293.0, 22289.0, 22305.0, 22308.0, 22352.0, 22218.0, 22296.0, 22326.0, 22365.0, 22366.0, 22304.0, 22210.0, 22180.0, 22185.0, 22341.0, 22324.0, 22257.0, 22194.0, 22174.0, 22186.0, 22186.0, 22228.0, 22240.0, 22266.0, 22303.0, 22305.0, 22259.0, 22226.0, 22227.0, 22258.0, 22301.0]
    },
    "slices": {}
  }
}