{
  "AcquisitionMatrixPE": 104,
  "AcquisitionNumber": 1,
  "AcquisitionTime": "20:06:4.362500",
  "BandwidthPerPixelPhaseEncode": 17.17,
  "BaseResolution": 104,
  "BodyPartExamined": "BRAIN",
  "CoilCombinationMethod": "Sum of Squares",
  "ConsistencyInfo": "N4_VE11C_LATEST_20160120",
  "ConversionSoftware": "dcm2niix",
  "ConversionSoftwareVersion": "v1.0.20230411",
  "DerivedVendorReportedEchoSpacing": 0.000560011,
  "DeviceSerialNumber": "167006",
  "DwellTime": 2.1e-06,
  "EchoTime": 0.037,
  "EchoTime1": 0.037,
  "EchoTime2": 0.001,
  "EchoTrainLength": 104,
  "EffectiveEchoSpacing": 0.000560011,
  "FlipAngle": 52,
  "HeudiconvVersion": "0.5.3.post861+ge7d3c7f",
  "ImageComments": "Unaliased MB4/PE3/LB",
  "ImageOrientationPatientDICOM": [0.999932, -0.0116369, 0.000657235, 0.0109952, 0.923084, -0.384441],
  "ImageOrientationText": "Tra>Cor(-22.6)>Sag(-0.2)",
  "ImageType": [
    "ORIGINAL",
    "PRIMARY",
    "P",
    "MB",
    "ND",
    "MOSAIC",
    "PHASE"
],
  "ImagingFrequency": 123.249749,
  "InPlanePhaseEncodingDirectionDICOM": "COL",
  "InstitutionAddress": "Chemin Queen-Mary 4565,Montreal,District,CA,H3W 1W5",
  "InstitutionName": "IUGM",
  "InstitutionalDepartmentName": "Department",
  "MRAcquisitionType": "2D",
  "MagneticFieldStrength": 3,
  "Manufacturer": "Siemens",
  "ManufacturersModelName": "Prisma_fit",
  "MatrixCoilMode": "SENSE",
  "Modality": "MR",
  "MultibandAccelerationFactor": 4,
  "NonlinearGradientCorrection": false,
  "PartialFourier": 1,
  "PatientPosition": "HFS",
  "PercentPhaseFOV": 100,
  "PercentSampling": 100,
  "PhaseEncodingDirection": "j",
  "PhaseEncodingSteps": 104,
  "PhaseResolution": 1,
  "PixelBandwidth": 2290,
  "ProcedureStepDescription": "localizers^retinotopy",
  "ProtocolName": "func_task-bars",
  "PulseSequenceDetails": "%CustomerSeq%\\cmrr_mbep2d_bold",
  "ReceiveCoilActiveElements": "HC1-7;NC1,2",
  "ReceiveCoilName": "HeadNeck_64",
  "ReconMatrixPE": 104,
  "RepetitionTime": 1.49,
  "SAR": 0.0690705,
  "ScanOptions": "FS",
  "ScanningSequence": "EP",
  "SequenceName": "epfid2d1_104",
  "SequenceVariant": "SK\\SS",
  "SeriesDescription": "func_task-bars",
  "SeriesNumber": 17,
  "ShimSetting": [585, -7280, -8817, 404, 14, -372, -44, 91],
  "SliceThickness": 2,
  "SliceTiming": [0, 0.7825, 0.0975, 0.88, 0.195, 0.98, 0.2925, 1.0775, 0.39, 1.175, 0.49, 1.2725, 0.5875, 1.37, 0.685, 0, 0.7825, 0.0975, 0.88, 0.195, 0.98, 0.2925, 1.0775, 0.39, 1.175, 0.49, 1.2725, 0.5875, 1.37, 0.685, 0, 0.7825, 0.0975, 0.88, 0.195, 0.98, 0.2925, 1.0775, 0.39, 1.175, 0.49, 1.2725, 0.5875, 1.37, 0.685, 0, 0.7825, 0.0975, 0.88, 0.195, 0.98, 0.2925, 1.0775, 0.39, 1.175, 0.49, 1.2725, 0.5875, 1.37, 0.685],
  "SoftwareVersions": "syngo MR E11",
  "SpacingBetweenSlices": 2,
  "StationName": "MRC35049",
  "TaskName": "bars",
  "TotalReadoutTime": 0.0576811,
  "TxRefAmp": 290.909,
  "WipMemBlock": "ef89d445-9098-48b1-ab6b-2e55ff1eae43||Sequence: R017 ve11c/master r/75a17815+; Jun 28 2022 16:32:11 by eja",
  "dcmmeta_affine": [
    [-1.999864101409912, 0.021990474313497543, -0.007734016980975866, 103.37284851074219],
    [0.023273766040802002, 1.8461683988571167, -0.7688436508178711, -69.783935546875],
    [0.0013144692638888955, 0.7688814401626587, 1.8462988138198853, -66.34712219238281],
    [0.0, 0.0, 0.0, 1.0]
],
  "dcmmeta_reorient_transform": [
    [0.0, -1.0, 0.0, 103.0],
    [1.0, 0.0, 0.0, 0.0],
    [0.0, 0.0, 1.0, 0.0],
    [0.0, 0.0, 0.0, 1.0]
],
  "dcmmeta_shape": [104, 104, 60, 202],
  "dcmmeta_slice_dim": 2,
  "dcmmeta_version": 0.6,
  "global": {
    "const": {
      "AcquisitionMatrix": [104, 0, 0, 104],
      "AngioFlag": "N",
      "BitsAllocated": 16,
      "BitsStored": 16,
      "BodyPartExamined": "BRAIN",
      "Columns": 832,
      "EchoNumbers": 1,
      "EchoTime": 37.0,
      "EchoTrainLength": 104,
      "FlipAngle": 52.0,
      "HighBit": 15,
      "ImageOrientationPatient": [0.99993207319195, -0.0116368829466, 0.00065723461718, 0.01099523742305, 0.9230842019216, -0.3844407118358],
      "ImagePositionPatient": [-841.59294805558, -783.90505622804, 292.24203616658],
      "ImageType": [
        "ORIGINAL",
        "PRIMARY",
        "P",
        "MB",
        "ND",
        "MOSAIC"
],
      "ImagedNucleus": "1H",
      "ImagingFrequency": 123.249749,
      "InPlanePhaseEncodingDirection": "COL",
      "LargestImagePixelValue": 4095,
      "MRAcquisitionType": "2D",
      "MagneticFieldStrength": 3.0,
      "Manufacturer": "SIEMENS",
      "ManufacturerModelName": "Prisma_fit",
      "Modality": "MR",
      "NumberOfAverages": 1.0,
      "NumberOfPhaseEncodingSteps": 104,
      "PercentPhaseFieldOfView": 100.0,
      "PercentSampling": 100.0,
      "PerformedProcedureStepStartTime": "194717.222000",
      "PhotometricInterpretation": "MONOCHROME2",
      "PixelBandwidth": 2290.0,
      "PixelRepresentation": 0,
      "PixelSpacing": [2.0, 2.0],
      "ProtocolName": "func_task-bars",
      "RepetitionTime": 1490.0,
      "RescaleIntercept": -4096.0,
      "RescaleSlope": 2.0,
      "RescaleType": "US",
      "Rows": 832,
      "SAR": 0.06907051533218,
      "SamplesPerPixel": 1,
      "ScanOptions": "FS",
      "ScanningSequence": "EP",
      "SequenceName": "epfid2d1_104",
      "SequenceVariant": [
        "SK",
        "SS"
],
      "SeriesDescription": "func_task-bars",
      "SeriesNumber": 17,
      "SeriesTime": "200711.311000",
      "SliceLocation": -34.821584175014,
      "SliceThickness": 2.0,
      "SmallestImagePixelValue": 0,
      "SoftwareVersions": "syngo MR E11",
      "SpacingBetweenSlices": 1.9999999316348,
      "SpecificCharacterSet": "ISO_IR 100",
      "StudyID": "1",
      "StudyTime": "194717.154000",
      "TransmitCoilName": "Body",
      "VariableFlipAngleFlag": "N",
      "WindowCenterWidthExplanation": "Algo1",
      "dBdt": 0.0},
    "slices": {}
  },
  "time": {
    "samples": {
      "AcquisitionNumber": [1, 2, 3, 4, 5, 6, 7, 8, 9, 10, 11, 12, 13, 14, 15, 16, 17, 18, 19, 20, 21, 22, 23, 24, 25, 26, 27, 28, 29, 30, 31, 32, 33, 34, 35, 36, 37, 38, 39, 40, 41, 42, 43, 44, 45, 46, 47, 48, 49, 50, 51, 52, 53, 54, 55, 56, 57, 58, 59, 60, 61, 62, 63, 64, 65, 66, 67, 68, 69, 70, 71, 72, 73, 74, 75, 76, 77, 78, 79, 80, 81, 82, 83, 84, 85, 86, 87, 88, 89, 90, 91, 92, 93, 94, 95, 96, 97, 98, 99, 100, 101, 102, 103, 104, 105, 106, 107, 108, 109, 110, 111, 112, 113, 114, 115, 116, 117, 118, 119, 120, 121, 122, 123, 124, 125, 126, 127, 128, 129, 130, 131, 132, 133, 134, 135, 136, 137, 138, 139, 140, 141, 142, 143, 144, 145, 146, 147, 148, 149, 150, 151, 152, 153, 154, 155, 156, 157, 158, 159, 160, 161, 162, 163, 164, 165, 166, 167, 168, 169, 170, 171, 172, 173, 174, 175, 176, 177, 178, 179, 180, 181, 182, 183, 184, 185, 186, 187, 188, 189, 190, 191, 192, 193, 194, 195, 196, 197, 198, 199, 200, 201, 202],
      "AcquisitionTime": ["200604.362500", "200605.852500", "200607.342500", "200608.832500", "200610.322500", "200611.812500", "200613.302500", "200614.792500", "200616.282500", "200617.772500", "200619.262500", "200620.752500", "200622.242500", "200623.732500", "200625.222500", "200626.712500", "200628.202500", "200629.692500", "200631.182500", "200632.672500", "200634.162500", "200635.652500", "200637.142500", "200638.632500", "200640.122500", "200641.612500", "200643.102500", "200644.592500", "200646.082500", "200647.572500", "200649.062500", "200650.552500", "200652.042500", "200653.532500", "200655.022500", "200656.512500", "200658.002500", "200659.492500", "200700.982500", "200702.472500", "200703.962500", "200705.452500", "200706.942500", "200708.432500", "200709.922500", "200711.412500", "200712.902500", "200714.392500", "200715.882500", "200717.372500", "200718.862500", "200720.352500", "200721.842500", "200723.332500", "200724.822500", "200726.312500", "200727.802500", "200729.292500", "200730.782500", "200732.272500", "200733.762500", "200735.252500", "200736.742500", "200738.232500", "200739.722500", "200741.212500", "200742.702500", "200744.192500", "200745.682500", "200747.172500", "200748.662500", "200750.152500", "200751.642500", "200753.132500", "200754.622500", "200756.112500", "200757.602500", "200759.092500", "200800.582500", "200802.072500", "200803.562500", "200805.052500", "200806.542500", "200808.032500", "200809.522500", "200811.012500", "200812.502500", "200813.992500", "200815.482500", "200816.972500", "200818.462500", "200819.952500", "200821.442500", "200822.932500", "200824.422500", "200825.912500", "200827.402500", "200828.892500", "200830.382500", "200831.872500", "200833.362500", "200834.852500", "200836.342500", "200837.832500", "200839.322500", "200840.812500", "200842.302500", "200843.792500", "200845.282500", "200846.772500", "200848.262500", "200849.752500", "200851.242500", "200852.732500", "200854.222500", "200855.712500", "200857.202500", "200858.692500", "200900.182500", "200901.672500", "200903.162500", "200904.652500", "200906.142500", "200907.632500", "200909.122500", "200910.612500", "200912.102500", "200913.592500", "200915.082500", "200916.572500", "200918.062500", "200919.552500", "200921.042500", "200922.532500", "200924.022500", "200925.512500", "200927.002500", "200928.492500", "200929.982500", "200931.472500", "200932.962500", "200934.452500", "200935.942500", "200937.432500", "200938.922500", "200940.412500", "200941.902500", "200943.392500", "200944.882500", "200946.372500", "200947.862500", "200949.352500", "200950.842500", "200952.332500", "200953.822500", "200955.312500", "200956.802500", "200958.292500", "200959.782500", "201001.272500", "201002.762500", "201004.252500", "201005.742500", "201007.232500", "201008.722500", "201010.212500", "201011.702500", "201013.192500", "201014.682500", "201016.172500", "201017.662500", "201019.152500", "201020.642500", "201022.132500", "201023.622500", "201025.112500", "201026.602500", "201028.092500", "201029.582500", "201031.072500", "201032.562500", "201034.052500", "201035.542500", "201037.032500", "201038.522500", "201040.012500", "201041.502500", "201042.992500", "201044.482500", "201045.972500", "201047.462500", "201048.952500", "201050.442500", "201051.932500", "201053.422500", "201054.912500", "201056.402500", "201057.892500", "201059.382500", "201100.872500", "201102.362500", "201103.852500"],
      "ContentTime": ["200711.313000", "200711.316000", "200711.323000", "200711.326000", "200711.329000", "200711.331000", "200711.334000", "200711.336000", "200711.339000", "200711.342000", "200711.344000", "200711.347000", "200711.349000", "200711.352000", "200711.354000", "200711.357000", "200711.360000", "200731.282000", "200731.285000", "200731.288000", "200731.290000", "200731.293000", "200731.295000", "200731.298000", "200731.301000", "200731.303000", "200731.306000", "200731.308000", "200731.311000", "200731.313000", "200731.316000", "200731.318000", "200731.321000", "200731.323000", "200731.326000", "200731.328000", "200731.331000", "200731.334000", "200751.276000", "200751.278000", "200751.289000", "200751.292000", "200751.295000", "200751.297000", "200751.300000", "200751.302000", "200751.305000", "200751.307000", "200751.310000", "200751.312000", "200751.315000", "200751.318000", "200751.320000", "200751.323000", "200751.325000", "200751.328000", "200751.331000", "200751.333000", "200811.293000", "200811.296000", "200811.298000", "200811.301000", "200811.303000", "200811.306000", "200811.309000", "200811.311000", "200811.314000", "200811.316000", "200811.319000", "200811.322000", "200811.324000", "200811.327000", "200811.329000", "200811.332000", "200811.334000", "200811.337000", "200811.340000", "200811.342000", "200831.280000", "200831.283000", "200831.286000", "200831.288000", "200831.291000", "200831.293000", "200831.296000", "200831.299000", "200831.301000", "200831.304000", "200831.306000", "200831.309000", "200831.312000", "200831.314000", "200831.317000", "200831.319000", "200831.322000", "200831.324000", "200831.327000", "200831.330000", "200911.311000", "200911.314000", "200911.316000", "200911.319000", "200911.322000", "200911.324000", "200911.327000", "200911.329000", "200911.332000", "200911.334000", "200911.337000", "200911.340000", "200911.342000", "200911.345000", "200911.347000", "200911.350000", "200911.352000", "200911.355000", "200911.358000", "200911.360000", "200911.363000", "200911.365000", "200911.368000", "200911.370000", "200911.373000", "200911.376000", "200911.378000", "200951.324000", "200951.327000", "200951.329000", "200951.332000", "200951.334000", "200951.337000", "200951.340000", "200951.342000", "200951.345000", "200951.347000", "200951.350000", "200951.352000", "200951.355000", "200951.358000", "200951.360000", "200951.363000", "200951.365000", "200951.368000", "200951.370000", "200951.373000", "200951.376000", "200951.378000", "200951.381000", "200951.383000", "200951.386000", "200951.388000", "201031.327000", "201031.329000", "201031.332000", "201031.335000", "201031.337000", "201031.340000", "201031.343000", "201031.346000", "201031.349000", "201031.351000", "201031.354000", "201031.356000", "201031.359000", "201031.362000", "201031.364000", "201031.367000", "201031.369000", "201031.372000", "201031.374000", "201031.377000", "201031.380000", "201031.382000", "201031.385000", "201031.387000", "201031.390000", "201031.393000", "201031.395000", "201105.956000", "201105.959000", "201105.961000", "201105.964000", "201105.967000", "201105.969000", "201105.972000", "201105.974000", "201105.977000", "201105.979000", "201105.982000", "201105.985000", "201105.987000", "201105.990000", "201105.993000", "201105.995000", "201105.998000", "201106.000000", "201106.003000", "201106.005000", "201106.008000", "201106.011000", "201106.013000", "201106.016000"],
      "InstanceCreationTime": ["200711.313000", "200711.316000", "200711.323000", "200711.326000", "200711.329000", "200711.331000", "200711.334000", "200711.336000", "200711.339000", "200711.342000", "200711.344000", "200711.347000", "200711.349000", "200711.352000", "200711.354000", "200711.357000", "200711.360000", "200731.282000", "200731.285000", "200731.288000", "200731.290000", "200731.293000", "200731.295000", "200731.298000", "200731.301000", "200731.303000", "200731.306000", "200731.308000", "200731.311000", "200731.313000", "200731.316000", "200731.318000", "200731.321000", "200731.323000", "200731.326000", "200731.328000", "200731.331000", "200731.334000", "200751.276000", "200751.278000", "200751.289000", "200751.292000", "200751.295000", "200751.297000", "200751.300000", "200751.302000", "200751.305000", "200751.307000", "200751.310000", "200751.312000", "200751.315000", "200751.318000", "200751.320000", "200751.323000", "200751.325000", "200751.328000", "200751.331000", "200751.333000", "200811.293000", "200811.296000", "200811.298000", "200811.301000", "200811.303000", "200811.306000", "200811.309000", "200811.311000", "200811.314000", "200811.316000", "200811.319000", "200811.322000", "200811.324000", "200811.327000", "200811.329000", "200811.332000", "200811.334000", "200811.337000", "200811.340000", "200811.342000", "200831.280000", "200831.283000", "200831.286000", "200831.288000", "200831.291000", "200831.293000", "200831.296000", "200831.299000", "200831.301000", "200831.304000", "200831.306000", "200831.309000", "200831.312000", "200831.314000", "200831.317000", "200831.319000", "200831.322000", "200831.324000", "200831.327000", "200831.330000", "200911.311000", "200911.314000", "200911.316000", "200911.319000", "200911.322000", "200911.324000", "200911.327000", "200911.329000", "200911.332000", "200911.334000", "200911.337000", "200911.340000", "200911.342000", "200911.345000", "200911.347000", "200911.350000", "200911.352000", "200911.355000", "200911.358000", "200911.360000", "200911.363000", "200911.365000", "200911.368000", "200911.370000", "200911.373000", "200911.376000", "200911.378000", "200951.324000", "200951.327000", "200951.329000", "200951.332000", "200951.334000", "200951.337000", "200951.340000", "200951.342000", "200951.345000", "200951.347000", "200951.350000", "200951.352000", "200951.355000", "200951.358000", "200951.360000", "200951.363000", "200951.365000", "200951.368000", "200951.370000", "200951.373000", "200951.376000", "200951.378000", "200951.381000", "200951.383000", "200951.386000", "200951.388000", "201031.327000", "201031.329000", "201031.332000", "201031.335000", "201031.337000", "201031.340000", "201031.343000", "201031.346000", "201031.349000", "201031.351000", "201031.354000", "201031.356000", "201031.359000", "201031.362000", "201031.364000", "201031.367000", "201031.369000", "201031.372000", "201031.374000", "201031.377000", "201031.380000", "201031.382000", "201031.385000", "201031.387000", "201031.390000", "201031.393000", "201031.395000", "201105.956000", "201105.959000", "201105.961000", "201105.964000", "201105.967000", "201105.969000", "201105.972000", "201105.974000", "201105.977000", "201105.979000", "201105.982000", "201105.985000", "201105.987000", "201105.990000", "201105.993000", "201105.995000", "201105.998000", "201106.000000", "201106.003000", "201106.005000", "201106.008000", "201106.011000", "201106.013000", "201106.016000"],
      "InstanceNumber": [1, 2, 3, 4, 5, 6, 7, 8, 9, 10, 11, 12, 13, 14, 15, 16, 17, 18, 19, 20, 21, 22, 23, 24, 25, 26, 27, 28, 29, 30, 31, 32, 33, 34, 35, 36, 37, 38, 39, 40, 41, 42, 43, 44, 45, 46, 47, 48, 49, 50, 51, 52, 53, 54, 55, 56, 57, 58, 59, 60, 61, 62, 63, 64, 65, 66, 67, 68, 69, 70, 71, 72, 73, 74, 75, 76, 77, 78, 79, 80, 81, 82, 83, 84, 85, 86, 87, 88, 89, 90, 91, 92, 93, 94, 95, 96, 97, 98, 99, 100, 101, 102, 103, 104, 105, 106, 107, 108, 109, 110, 111, 112, 113, 114, 115, 116, 117, 118, 119, 120, 121, 122, 123, 124, 125, 126, 127, 128, 129, 130, 131, 132, 133, 134, 135, 136, 137, 138, 139, 140, 141, 142, 143, 144, 145, 146, 147, 148, 149, 150, 151, 152, 153, 154, 155, 156, 157, 158, 159, 160, 161, 162, 163, 164, 165, 166, 167, 168, 169, 170, 171, 172, 173, 174, 175, 176, 177, 178, 179, 180, 181, 182, 183, 184, 185, 186, 187, 188, 189, 190, 191, 192, 193, 194, 195, 196, 197, 198, 199, 200, 201, 202],
      "WindowCenter": [4790.0, 4796.0, 4792.0, 4790.0, 4788.0, 4792.0, 4792.0, 4764.0, 4792.0, 4788.0, 4792.0, 4786.0, 4794.0, 4790.0, 4790.0, 4786.0, 4784.0, 4786.0, 4784.0, 4792.0, 4752.0, 4760.0, 4818.0, 4820.0, 4820.0, 4822.0, 4786.0, 4788.0, 4762.0, 4756.0, 4784.0, 4764.0, 4818.0, 4822.0, 4822.0, 4818.0, 4790.0, 4762.0, 4760.0, 4782.0, 4762.0, 4784.0, 4786.0, 4796.0, 4786.0, 4818.0, 4788.0, 4792.0, 4790.0, 4792.0, 4794.0, 4790.0, 4788.0, 4760.0, 4756.0, 4788.0, 4822.0, 4826.0, 4848.0, 4850.0, 4818.0, 4786.0, 4758.0, 4758.0, 4732.0, 4734.0, 4784.0, 4816.0, 4822.0, 4822.0, 4818.0, 4818.0, 4792.0, 4760.0, 4756.0, 4756.0, 4758.0, 4794.0, 4818.0, 4820.0, 4820.0, 4818.0, 4788.0, 4784.0, 4754.0, 4756.0, 4756.0, 4758.0, 4794.0, 4760.0, 4706.0, 4758.0, 4818.0, 4852.0, 4854.0, 4852.0, 4822.0, 4758.0, 4782.0, 4784.0, 4788.0, 4816.0, 4818.0, 4818.0, 4790.0, 4754.0, 4730.0, 4788.0, 4820.0, 4824.0, 4852.0, 4848.0, 4824.0, 4820.0, 4816.0, 4788.0, 4786.0, 4732.0, 4788.0, 4784.0, 4758.0, 4820.0, 4852.0, 4854.0, 4858.0, 4826.0, 4828.0, 4794.0, 4760.0, 4736.0, 4758.0, 4760.0, 4820.0, 4826.0, 4820.0, 4824.0, 4826.0, 4822.0, 4786.0, 4788.0, 4784.0, 4762.0, 4760.0, 4788.0, 4756.0, 4788.0, 4852.0, 4860.0, 4848.0, 4850.0, 4822.0, 4784.0, 4756.0, 4762.0, 4762.0, 4784.0, 4794.0, 4818.0, 4850.0, 4816.0, 4820.0, 4794.0, 4796.0, 4790.0, 4816.0, 4794.0, 4822.0, 4790.0, 4818.0, 4788.0, 4762.0, 4790.0, 4816.0, 4828.0, 4824.0, 4824.0, 4826.0, 4790.0, 4736.0, 4760.0, 4820.0, 4828.0, 4830.0, 4826.0, 4822.0, 4792.0, 4758.0, 4786.0, 4788.0, 4792.0, 4822.0, 4822.0, 4828.0, 4794.0, 4796.0, 4788.0, 4786.0, 4790.0, 4792.0, 4790.0, 4794.0, 4820.0],
      "WindowWidth": [18630.0, 18632.0, 18626.0, 18624.0, 18620.0, 18630.0, 18632.0, 18590.0, 18630.0, 18622.0, 18632.0, 18620.0, 18632.0, 18626.0, 18628.0, 18624.0, 18618.0, 18622.0, 18618.0, 18628.0, 18576.0, 18584.0, 18662.0, 18668.0, 18668.0, 18670.0, 18616.0, 18622.0, 18590.0, 18578.0, 18620.0, 18590.0, 18664.0, 18664.0, 18670.0, 18668.0, 18628.0, 18588.0, 18588.0, 18620.0, 18588.0, 18620.0, 18622.0, 18634.0, 18624.0, 18666.0, 18626.0, 18630.0, 18632.0, 18630.0, 18634.0, 18626.0, 18626.0, 18586.0, 18574.0, 18624.0, 18670.0, 18672.0, 18698.0, 18700.0, 18664.0, 18626.0, 18578.0, 18578.0, 18544.0, 18542.0, 18624.0, 18664.0, 18670.0, 18666.0, 18668.0, 18668.0, 18632.0, 18586.0, 18578.0, 18572.0, 18578.0, 18630.0, 18668.0, 18666.0, 18668.0, 18668.0, 18630.0, 18620.0, 18574.0, 18580.0, 18582.0, 18584.0, 18632.0, 18592.0, 18506.0, 18588.0, 18666.0, 18702.0, 18700.0, 18700.0, 18674.0, 18580.0, 18620.0, 18618.0, 18618.0, 18664.0, 18666.0, 18662.0, 18624.0, 18572.0, 18538.0, 18628.0, 18664.0, 18668.0, 18704.0, 18702.0, 18664.0, 18668.0, 18662.0, 18618.0, 18620.0, 18546.0, 18620.0, 18620.0, 18578.0, 18668.0, 18698.0, 18704.0, 18704.0, 18670.0, 18674.0, 18630.0, 18582.0, 18546.0, 18578.0, 18580.0, 18662.0, 18666.0, 18666.0, 18672.0, 18668.0, 18664.0, 18620.0, 18622.0, 18616.0, 18584.0, 18584.0, 18618.0, 18584.0, 18624.0, 18698.0, 18698.0, 18696.0, 18698.0, 18668.0, 18618.0, 18576.0, 18580.0, 18586.0, 18614.0, 18628.0, 18660.0, 18702.0, 18664.0, 18668.0, 18628.0, 18630.0, 18624.0, 18658.0, 18628.0, 18660.0, 18622.0, 18660.0, 18622.0, 18582.0, 18622.0, 18660.0, 18670.0, 18668.0, 18668.0, 18666.0, 18624.0, 18542.0, 18580.0, 18662.0, 18672.0, 18674.0, 18668.0, 18670.0, 18622.0, 18580.0, 18614.0, 18616.0, 18628.0, 18660.0, 18668.0, 18668.0, 18630.0, 18630.0, 18620.0, 18616.0, 18620.0, 18624.0, 18624.0, 18624.0, 18664.0]
    },
    "slices": {}
  }
}